3997.91411	0.03324
3995.98555	0.03305
3994.05698	0.03269
3992.12842	0.03242
3990.19985	0.03233
3988.27129	0.03237
3986.34272	0.03256
3984.41416	0.03280
3982.48560	0.03293
3980.55703	0.03292
3978.62847	0.03287
3976.69990	0.03287
3974.77134	0.03287
3972.84277	0.03280
3970.91421	0.03273
3968.98564	0.03275
3967.05708	0.03275
3965.12852	0.03275
3963.19995	0.03287
3961.27139	0.03294
3959.34282	0.03278
3957.41426	0.03260
3955.48569	0.03262
3953.55713	0.03275
3951.62856	0.03298
3949.70000	0.03329
3947.77144	0.03343
3945.84287	0.03349
3943.91431	0.03367
3941.98574	0.03360
3940.05718	0.03312
3938.12861	0.03277
3936.20005	0.03293
3934.27148	0.03359
3932.34292	0.03424
3930.41436	0.03426
3928.48579	0.03395
3926.55723	0.03400
3924.62866	0.03416
3922.70010	0.03407
3920.77153	0.03416
3918.84297	0.03451
3916.91440	0.03431
3914.98584	0.03344
3913.05728	0.03268
3911.12871	0.03252
3909.20015	0.03293
3907.27158	0.03410
3905.34302	0.03613
3903.41445	0.03779
3901.48589	0.03785
3899.55732	0.03662
3897.62876	0.03491
3895.70020	0.03380
3893.77163	0.03403
3891.84307	0.03483
3889.91450	0.03498
3887.98594	0.03529
3886.05737	0.03606
3884.12881	0.03604
3882.20024	0.03566
3880.27168	0.03530
3878.34312	0.03444
3876.41455	0.03424
3874.48599	0.03518
3872.55742	0.03643
3870.62886	0.03730
3868.70029	0.03700
3866.77173	0.03632
3864.84316	0.03642
3862.91460	0.03611
3860.98604	0.03498
3859.05747	0.03454
3857.12891	0.03561
3855.20034	0.03830
3853.27178	0.04029
3851.34321	0.03811
3849.41465	0.03513
3847.48608	0.03378
3845.55752	0.03414
3843.62896	0.03558
3841.70039	0.03729
3839.77183	0.03865
3837.84326	0.03886
3835.91470	0.03776
3833.98613	0.03659
3832.05757	0.03580
3830.12900	0.03512
3828.20044	0.03480
3826.27187	0.03479
3824.34331	0.03515
3822.41475	0.03660
3820.48618	0.03777
3818.55762	0.03731
3816.62905	0.03660
3814.70049	0.03538
3812.77192	0.03383
3810.84336	0.03326
3808.91479	0.03411
3806.98623	0.03542
3805.05767	0.03601
3803.12910	0.03683
3801.20054	0.03753
3799.27197	0.03682
3797.34341	0.03582
3795.41484	0.03452
3793.48628	0.03300
3791.55771	0.03231
3789.62915	0.03245
3787.70059	0.03285
3785.77202	0.03330
3783.84346	0.03358
3781.91489	0.03388
3779.98633	0.03428
3778.05776	0.03391
3776.12920	0.03304
3774.20063	0.03282
3772.27207	0.03348
3770.34351	0.03441
3768.41494	0.03486
3766.48638	0.03473
3764.55781	0.03423
3762.62925	0.03405
3760.70068	0.03477
3758.77212	0.03550
3756.84355	0.03551
3754.91499	0.03597
3752.98643	0.03781
3751.05786	0.03988
3749.12930	0.03989
3747.20073	0.03926
3745.27217	0.03931
3743.34360	0.03873
3741.41504	0.03772
3739.48647	0.03806
3737.55791	0.04034
3735.62935	0.04296
3733.70078	0.04307
3731.77222	0.04118
3729.84365	0.03967
3727.91509	0.03947
3725.98652	0.03999
3724.05796	0.03999
3722.12939	0.03914
3720.20083	0.03761
3718.27227	0.03593
3716.34370	0.03510
3714.41514	0.03598
3712.48657	0.03842
3710.55801	0.03993
3708.62944	0.03896
3706.70088	0.03753
3704.77231	0.03714
3702.84375	0.03772
3700.91519	0.03807
3698.98662	0.03770
3697.05806	0.03734
3695.12949	0.03754
3693.20093	0.03863
3691.27236	0.04039
3689.34380	0.04114
3687.41523	0.03967
3685.48667	0.03771
3683.55811	0.03646
3681.62954	0.03621
3679.70098	0.03724
3677.77241	0.03955
3675.84385	0.04157
3673.91528	0.04106
3671.98672	0.04023
3670.05815	0.03992
3668.12959	0.03814
3666.20103	0.03595
3664.27246	0.03501
3662.34390	0.03510
3660.41533	0.03552
3658.48677	0.03626
3656.55820	0.03697
3654.62964	0.03719
3652.70107	0.03836
3650.77251	0.04140
3648.84395	0.04313
3646.91538	0.04063
3644.98682	0.03740
3643.05825	0.03569
3641.12969	0.03534
3639.20112	0.03555
3637.27256	0.03599
3635.34399	0.03684
3633.41543	0.03801
3631.48687	0.03969
3629.55830	0.04180
3627.62974	0.04168
3625.70117	0.03966
3623.77261	0.03858
3621.84404	0.03900
3619.91548	0.04009
3617.98691	0.04011
3616.05835	0.03908
3614.12979	0.03845
3612.20122	0.03848
3610.27266	0.03901
3608.34409	0.03950
3606.41553	0.03887
3604.48696	0.03792
3602.55840	0.03792
3600.62983	0.03840
3598.70127	0.03867
3596.77271	0.03899
3594.84414	0.03908
3592.91558	0.03847
3590.98701	0.03815
3589.05845	0.03910
3587.12988	0.03991
3585.20132	0.03893
3583.27275	0.03760
3581.34419	0.03704
3579.41562	0.03677
3577.48706	0.03645
3575.55850	0.03624
3573.62993	0.03617
3571.70137	0.03654
3569.77280	0.03796
3567.84424	0.03987
3565.91567	0.04014
3563.98711	0.03882
3562.05854	0.03778
3560.12998	0.03729
3558.20142	0.03696
3556.27285	0.03691
3554.34429	0.03728
3552.41572	0.03757
3550.48716	0.03740
3548.55859	0.03748
3546.63003	0.03812
3544.70146	0.03844
3542.77290	0.03803
3540.84434	0.03762
3538.91577	0.03784
3536.98721	0.03831
3535.05864	0.03835
3533.13008	0.03823
3531.20151	0.03860
3529.27295	0.03929
3527.34438	0.03965
3525.41582	0.03949
3523.48726	0.03915
3521.55869	0.03883
3519.63013	0.03885
3517.70156	0.03930
3515.77300	0.03956
3513.84443	0.03936
3511.91587	0.03921
3509.98730	0.03927
3508.05874	0.03916
3506.13018	0.03926
3504.20161	0.03981
3502.27305	0.03992
3500.34448	0.03935
3498.41592	0.03913
3496.48735	0.03966
3494.55879	0.04021
3492.63022	0.04034
3490.70166	0.04034
3488.77310	0.04030
3486.84453	0.04022
3484.91597	0.04034
3482.98740	0.04057
3481.05884	0.04058
3479.13027	0.04041
3477.20171	0.04034
3475.27314	0.04040
3473.34458	0.04044
3471.41602	0.04051
3469.48745	0.04076
3467.55889	0.04098
3465.63032	0.04109
3463.70176	0.04114
3461.77319	0.04112
3459.84463	0.04117
3457.91606	0.04143
3455.98750	0.04169
3454.05894	0.04170
3452.13037	0.04150
3450.20181	0.04146
3448.27324	0.04182
3446.34468	0.04230
3444.41611	0.04247
3442.48755	0.04239
3440.55898	0.04226
3438.63042	0.04217
3436.70186	0.04212
3434.77329	0.04216
3432.84473	0.04226
3430.91616	0.04233
3428.98760	0.04237
3427.05903	0.04251
3425.13047	0.04271
3423.20190	0.04293
3421.27334	0.04319
3419.34478	0.04337
3417.41621	0.04331
3415.48765	0.04309
3413.55908	0.04288
3411.63052	0.04286
3409.70195	0.04311
3407.77339	0.04330
3405.84482	0.04321
3403.91626	0.04305
3401.98770	0.04299
3400.05913	0.04300
3398.13057	0.04308
3396.20200	0.04307
3394.27344	0.04289
3392.34487	0.04287
3390.41631	0.04303
3388.48774	0.04311
3386.55918	0.04318
3384.63062	0.04331
3382.70205	0.04331
3380.77349	0.04327
3378.84492	0.04332
3376.91636	0.04337
3374.98779	0.04349
3373.05923	0.04369
3371.13066	0.04370
3369.20210	0.04349
3367.27354	0.04348
3365.34497	0.04384
3363.41641	0.04422
3361.48784	0.04438
3359.55928	0.04432
3357.63071	0.04406
3355.70215	0.04382
3353.77358	0.04378
3351.84502	0.04381
3349.91646	0.04380
3347.98789	0.04380
3346.05933	0.04381
3344.13076	0.04373
3342.20220	0.04357
3340.27363	0.04364
3338.34507	0.04398
3336.41650	0.04426
3334.48794	0.04434
3332.55937	0.04434
3330.63081	0.04445
3328.70225	0.04462
3326.77368	0.04449
3324.84512	0.04409
3322.91655	0.04393
3320.98799	0.04408
3319.05942	0.04416
3317.13086	0.04419
3315.20229	0.04440
3313.27373	0.04461
3311.34517	0.04448
3309.41660	0.04412
3307.48804	0.04385
3305.55947	0.04368
3303.63091	0.04347
3301.70234	0.04345
3299.77378	0.04374
3297.84521	0.04397
3295.91665	0.04390
3293.98809	0.04367
3292.05952	0.04360
3290.13096	0.04383
3288.20239	0.04407
3286.27383	0.04397
3284.34526	0.04361
3282.41670	0.04332
3280.48813	0.04308
3278.55957	0.04294
3276.63101	0.04303
3274.70244	0.04322
3272.77388	0.04328
3270.84531	0.04319
3268.91675	0.04305
3266.98818	0.04299
3265.05962	0.04304
3263.13105	0.04316
3261.20249	0.04334
3259.27393	0.04347
3257.34536	0.04325
3255.41680	0.04273
3253.48823	0.04237
3251.55967	0.04240
3249.63110	0.04256
3247.70254	0.04252
3245.77397	0.04229
3243.84541	0.04218
3241.91685	0.04231
3239.98828	0.04251
3238.05972	0.04244
3236.13115	0.04213
3234.20259	0.04192
3232.27402	0.04190
3230.34546	0.04186
3228.41689	0.04173
3226.48833	0.04167
3224.55977	0.04176
3222.63120	0.04181
3220.70264	0.04160
3218.77407	0.04129
3216.84551	0.04112
3214.91694	0.04107
3212.98838	0.04109
3211.05981	0.04119
3209.13125	0.04122
3207.20269	0.04109
3205.27412	0.04102
3203.34556	0.04122
3201.41699	0.04137
3199.48843	0.04113
3197.55986	0.04057
3195.63130	0.04009
3193.70273	0.04002
3191.77417	0.04022
3189.84561	0.04028
3187.91704	0.04021
3185.98848	0.04026
3184.05991	0.04022
3182.13135	0.03981
3180.20278	0.03932
3178.27422	0.03916
3176.34565	0.03931
3174.41709	0.03946
3172.48853	0.03940
3170.55996	0.03918
3168.63140	0.03908
3166.70283	0.03928
3164.77427	0.03949
3162.84570	0.03942
3160.91714	0.03915
3158.98857	0.03888
3157.06001	0.03873
3155.13145	0.03865
3153.20288	0.03851
3151.27432	0.03823
3149.34575	0.03787
3147.41719	0.03767
3145.48862	0.03778
3143.56006	0.03788
3141.63149	0.03762
3139.70293	0.03720
3137.77437	0.03700
3135.84580	0.03694
3133.91724	0.03681
3131.98867	0.03660
3130.06011	0.03649
3128.13154	0.03654
3126.20298	0.03663
3124.27441	0.03673
3122.34585	0.03685
3120.41729	0.03691
3118.48872	0.03695
3116.56016	0.03708
3114.63159	0.03741
3112.70303	0.03798
3110.77446	0.03871
3108.84590	0.03955
3106.91733	0.04040
3104.98877	0.04095
3103.06021	0.04114
3101.13164	0.04117
3099.20308	0.04109
3097.27451	0.04103
3095.34595	0.04121
3093.41738	0.04180
3091.48882	0.04301
3089.56025	0.04508
3087.63169	0.04795
3085.70312	0.05101
3083.77456	0.05329
3081.84600	0.05399
3079.91743	0.05314
3077.98887	0.05160
3076.06030	0.05012
3074.13174	0.04920
3072.20317	0.04913
3070.27461	0.04991
3068.34604	0.05162
3066.41748	0.05437
3064.48892	0.05769
3062.56035	0.06066
3060.63179	0.06257
3058.70322	0.06291
3056.77466	0.06149
3054.84609	0.05879
3052.91753	0.05584
3050.98896	0.05343
3049.06040	0.05158
3047.13184	0.05014
3045.20327	0.04942
3043.27471	0.04964
3041.34614	0.05070
3039.41758	0.05247
3037.48901	0.05520
3035.56045	0.05918
3033.63188	0.06462
3031.70332	0.07155
3029.77476	0.07935
3027.84619	0.08662
3025.91763	0.09134
3023.98906	0.09158
3022.06050	0.08717
3020.13193	0.08000
3018.20337	0.07238
3016.27480	0.06589
3014.34624	0.06110
3012.41768	0.05808
3010.48911	0.05671
3008.56055	0.05660
3006.63198	0.05713
3004.70342	0.05780
3002.77485	0.05840
3000.84629	0.05862
2998.91772	0.05797
2996.98916	0.05646
2995.06060	0.05470
2993.13203	0.05344
2991.20347	0.05304
2989.27490	0.05298
2987.34634	0.05252
2985.41777	0.05181
2983.48921	0.05141
2981.56064	0.05143
2979.63208	0.05171
2977.70352	0.05206
2975.77495	0.05231
2973.84639	0.05255
2971.91782	0.05302
2969.98926	0.05365
2968.06069	0.05431
2966.13213	0.05501
2964.20356	0.05577
2962.27500	0.05660
2960.34644	0.05742
2958.41787	0.05819
2956.48931	0.05902
2954.56074	0.06014
2952.63218	0.06169
2950.70361	0.06355
2948.77505	0.06552
2946.84648	0.06765
2944.91792	0.07001
2942.98936	0.07271
2941.06079	0.07601
2939.13223	0.08003
2937.20366	0.08468
2935.27510	0.08976
2933.34653	0.09504
2931.41797	0.10041
2929.48940	0.10586
2927.56084	0.11102
2925.63228	0.11547
2923.70371	0.11899
2921.77515	0.12142
2919.84658	0.12248
2917.91802	0.12220
2915.98945	0.12084
2914.06089	0.11857
2912.13232	0.11568
2910.20376	0.11257
2908.27520	0.10934
2906.34663	0.10605
2904.41807	0.10286
2902.48950	0.09989
2900.56094	0.09672
2898.63237	0.09304
2896.70381	0.08945
2894.77524	0.08650
2892.84668	0.08399
2890.91812	0.08170
2888.98955	0.07974
2887.06099	0.07821
2885.13242	0.07693
2883.20386	0.07556
2881.27529	0.07404
2879.34673	0.07261
2877.41816	0.07136
2875.48960	0.07026
2873.56104	0.06929
2871.63247	0.06846
2869.70391	0.06780
2867.77534	0.06737
2865.84678	0.06724
2863.91821	0.06753
2861.98965	0.06834
2860.06108	0.06963
2858.13252	0.07129
2856.20396	0.07321
2854.27539	0.07529
2852.34683	0.07719
2850.41826	0.07830
2848.48970	0.07825
2846.56113	0.07716
2844.63257	0.07525
2842.70400	0.07254
2840.77544	0.06926
2838.84687	0.06580
2836.91831	0.06238
2834.98975	0.05930
2833.06118	0.05674
2831.13262	0.05465
2829.20405	0.05296
2827.27549	0.05167
2825.34692	0.05071
2823.41836	0.05000
2821.48979	0.04948
2819.56123	0.04905
2817.63267	0.04867
2815.70410	0.04847
2813.77554	0.04831
2811.84697	0.04799
2809.91841	0.04755
2807.98984	0.04712
2806.06128	0.04687
2804.13271	0.04676
2802.20415	0.04659
2800.27559	0.04627
2798.34702	0.04592
2796.41846	0.04560
2794.48989	0.04537
2792.56133	0.04528
2790.63276	0.04522
2788.70420	0.04509
2786.77563	0.04491
2784.84707	0.04473
2782.91851	0.04454
2780.98994	0.04441
2779.06138	0.04438
2777.13281	0.04433
2775.20425	0.04412
2773.27568	0.04385
2771.34712	0.04367
2769.41855	0.04360
2767.48999	0.04349
2765.56143	0.04330
2763.63286	0.04317
2761.70430	0.04314
2759.77573	0.04309
2757.84717	0.04300
2755.91860	0.04291
2753.99004	0.04281
2752.06147	0.04270
2750.13291	0.04259
2748.20435	0.04248
2746.27578	0.04244
2744.34722	0.04242
2742.41865	0.04231
2740.49009	0.04226
2738.56152	0.04234
2736.63296	0.04234
2734.70439	0.04224
2732.77583	0.04217
2730.84727	0.04212
2728.91870	0.04207
2726.99014	0.04209
2725.06157	0.04212
2723.13301	0.04206
2721.20444	0.04196
2719.27588	0.04191
2717.34731	0.04186
2715.41875	0.04174
2713.49019	0.04162
2711.56162	0.04154
2709.63306	0.04150
2707.70449	0.04146
2705.77593	0.04136
2703.84736	0.04121
2701.91880	0.04114
2699.99023	0.04118
2698.06167	0.04125
2696.13311	0.04128
2694.20454	0.04119
2692.27598	0.04102
2690.34741	0.04097
2688.41885	0.04103
2686.49028	0.04101
2684.56172	0.04093
2682.63315	0.04095
2680.70459	0.04102
2678.77603	0.04095
2676.84746	0.04082
2674.91890	0.04077
2672.99033	0.04079
2671.06177	0.04083
2669.13320	0.04080
2667.20464	0.04079
2665.27607	0.04092
2663.34751	0.04099
2661.41895	0.04089
2659.49038	0.04077
2657.56182	0.04071
2655.63325	0.04072
2653.70469	0.04079
2651.77612	0.04081
2649.84756	0.04076
2647.91899	0.04068
2645.99043	0.04058
2644.06187	0.04057
2642.13330	0.04067
2640.20474	0.04077
2638.27617	0.04080
2636.34761	0.04072
2634.41904	0.04059
2632.49048	0.04048
2630.56191	0.04035
2628.63335	0.04016
2626.70479	0.03996
2624.77622	0.03975
2622.84766	0.03953
2620.91909	0.03941
2618.99053	0.03938
2617.06196	0.03941
2615.13340	0.03945
2613.20483	0.03944
2611.27627	0.03938
2609.34771	0.03942
2607.41914	0.03955
2605.49058	0.03954
2603.56201	0.03936
2601.63345	0.03918
2599.70488	0.03908
2597.77632	0.03902
2595.84775	0.03893
2593.91919	0.03876
2591.99062	0.03855
2590.06206	0.03841
2588.13350	0.03840
2586.20493	0.03847
2584.27637	0.03850
2582.34780	0.03843
2580.41924	0.03833
2578.49067	0.03825
2576.56211	0.03822
2574.63354	0.03816
2572.70498	0.03802
2570.77642	0.03783
2568.84785	0.03769
2566.91929	0.03764
2564.99072	0.03764
2563.06216	0.03768
2561.13359	0.03777
2559.20503	0.03782
2557.27646	0.03776
2555.34790	0.03760
2553.41934	0.03745
2551.49077	0.03747
2549.56221	0.03758
2547.63364	0.03766
2545.70508	0.03772
2543.77651	0.03777
2541.84795	0.03770
2539.91938	0.03744
2537.99082	0.03715
2536.06226	0.03707
2534.13369	0.03717
2532.20513	0.03723
2530.27656	0.03717
2528.34800	0.03703
2526.41943	0.03691
2524.49087	0.03688
2522.56230	0.03694
2520.63374	0.03706
2518.70518	0.03716
2516.77661	0.03709
2514.84805	0.03695
2512.91948	0.03697
2510.99092	0.03712
2509.06235	0.03712
2507.13379	0.03697
2505.20522	0.03688
2503.27666	0.03680
2501.34810	0.03667
2499.41953	0.03666
2497.49097	0.03675
2495.56240	0.03675
2493.63384	0.03668
2491.70527	0.03668
2489.77671	0.03670
2487.84814	0.03666
2485.91958	0.03658
2483.99102	0.03653
2482.06245	0.03649
2480.13389	0.03641
2478.20532	0.03636
2476.27676	0.03635
2474.34819	0.03636
2472.41963	0.03637
2470.49106	0.03637
2468.56250	0.03631
2466.63394	0.03623
2464.70537	0.03620
2462.77681	0.03619
2460.84824	0.03607
2458.91968	0.03601
2456.99111	0.03612
2455.06255	0.03625
2453.13398	0.03622
2451.20542	0.03614
2449.27686	0.03609
2447.34829	0.03607
2445.41973	0.03598
2443.49116	0.03587
2441.56260	0.03583
2439.63403	0.03576
2437.70547	0.03557
2435.77690	0.03541
2433.84834	0.03543
2431.91978	0.03557
2429.99121	0.03570
2428.06265	0.03569
2426.13408	0.03557
2424.20552	0.03552
2422.27695	0.03547
2420.34839	0.03528
2418.41982	0.03518
2416.49126	0.03522
2414.56270	0.03520
2412.63413	0.03522
2410.70557	0.03539
2408.77700	0.03545
2406.84844	0.03531
2404.91987	0.03516
2402.99131	0.03520
2401.06274	0.03522
2399.13418	0.03169
2397.20562	0.03101
2395.27705	0.03232
2393.34849	0.03397
2391.41992	0.03582
2389.49136	0.03787
2387.56279	0.04006
2385.63423	0.04233
2383.70566	0.04448
2381.77710	0.04603
2379.84854	0.04649
2377.91997	0.04586
2375.99141	0.04472
2374.06284	0.04423
2372.13428	0.04499
2370.20571	0.04573
2368.27715	0.04678
2366.34858	0.04812
2364.42002	0.05036
2362.49146	0.05235
2360.56289	0.05301
2358.63433	0.05357
2356.70576	0.05398
2354.77720	0.05579
2352.84863	0.05911
2350.92007	0.06209
2348.99150	0.06252
2347.06294	0.05891
2345.13437	0.05405
2343.20581	0.05319
2341.27725	0.05638
2339.34868	0.05759
2337.42012	0.05626
2335.49155	0.05386
2333.56299	0.05101
2331.63442	0.05008
2329.70586	0.05097
2327.77729	0.05390
2325.84873	0.05303
2323.92017	0.04894
2321.99160	0.04439
2320.06304	0.04204
2318.13447	0.04112
2316.20591	0.04151
2314.27734	0.04194
2312.34878	0.04269
2310.42021	0.04399
2308.49165	0.04475
2306.56309	0.04505
2304.63452	0.04475
2302.70596	0.04405
2300.77739	0.04326
2298.84883	0.04244
2296.92026	0.04167
2294.99170	0.04118
2293.06313	0.04072
2291.13457	0.04004
2289.20601	0.03902
2287.27744	0.03763
2285.34888	0.03619
2283.42031	0.03507
2281.49175	0.03432
2279.56318	0.03390
2277.63462	0.03372
2275.70605	0.03374
2273.77749	0.03393
2271.84893	0.03411
2269.92036	0.03426
2267.99180	0.03450
2266.06323	0.03482
2264.13467	0.03513
2262.20610	0.03568
2260.27754	0.03641
2258.34897	0.03671
2256.42041	0.03643
2254.49185	0.03627
2252.56328	0.03676
2250.63472	0.03701
2248.70615	0.03482
2246.77759	0.03450
2244.84902	0.03428
2242.92046	0.03423
2240.99189	0.03443
2239.06333	0.03469
2237.13477	0.03467
2235.20620	0.03452
2233.27764	0.03458
2231.34907	0.03473
2229.42051	0.03466
2227.49194	0.03432
2225.56338	0.03402
2223.63481	0.03416
2221.70625	0.03447
2219.77769	0.03443
2217.84912	0.03417
2215.92056	0.03410
2213.99199	0.03418
2212.06343	0.03418
2210.13486	0.03403
2208.20630	0.03374
2206.27773	0.03351
2204.34917	0.03364
2202.42061	0.03376
2200.49204	0.03365
2198.56348	0.03378
2196.63491	0.03427
2194.70635	0.03472
2192.77778	0.03481
2190.84922	0.03457
2188.92065	0.03434
2186.99209	0.03431
2185.06353	0.03405
2183.13496	0.03341
2181.20640	0.03317
2179.27783	0.03371
2177.34927	0.03412
2175.42070	0.03387
2173.49214	0.03351
2171.56357	0.03368
2169.63501	0.03425
2167.70645	0.03456
2165.77788	0.03451
2163.84932	0.03438
2161.92075	0.03350
2159.99219	0.03130
2158.06362	0.02969
2156.13506	0.03004
2154.20649	0.03070
2152.27793	0.03084
2150.34937	0.03109
2148.42080	0.03148
2146.49224	0.03188
2144.56367	0.03224
2142.63511	0.03211
2140.70654	0.03153
2138.77798	0.03105
2136.84941	0.03084
2134.92085	0.03079
2132.99229	0.03102
2131.06372	0.03150
2129.13516	0.03194
2127.20659	0.03225
2125.27803	0.03250
2123.34946	0.03272
2121.42090	0.03281
2119.49233	0.03275
2117.56377	0.03284
2115.63521	0.03320
2113.70664	0.03364
2111.77808	0.03378
2109.84951	0.03353
2107.92095	0.03325
2105.99238	0.03319
2104.06382	0.03323
2102.13525	0.03320
2100.20669	0.03296
2098.27812	0.03250
2096.34956	0.03199
2094.42100	0.03179
2092.49243	0.03207
2090.56387	0.03247
2088.63530	0.03266
2086.70674	0.03276
2084.77817	0.03284
2082.84961	0.03290
2080.92104	0.03302
2078.99248	0.03320
2077.06392	0.03327
2075.13535	0.03302
2073.20679	0.03264
2071.27822	0.03234
2069.34966	0.03222
2067.42109	0.03226
2065.49253	0.03225
2063.56396	0.03229
2061.63540	0.03257
2059.70684	0.03277
2057.77827	0.03271
2055.84971	0.03273
2053.92114	0.03318
2051.99258	0.03383
2050.06401	0.03398
2048.13545	0.03352
2046.20688	0.03318
2044.27832	0.03313
2042.34976	0.03293
2040.42119	0.03270
2038.49263	0.03284
2036.56406	0.03308
2034.63550	0.03290
2032.70693	0.03239
2030.77837	0.03215
2028.84980	0.03210
2026.92124	0.03187
2024.99268	0.03162
2023.06411	0.03143
2021.13555	0.03152
2019.20698	0.03206
2017.27842	0.03237
2015.34985	0.03202
2013.42129	0.03137
2011.49272	0.03084
2009.56416	0.03071
2007.63560	0.03078
2005.70703	0.03059
2003.77847	0.03033
2001.84990	0.03048
1999.92134	0.03107
1997.99277	0.03164
1996.06421	0.03192
1994.13564	0.03249
1992.20708	0.03351
1990.27852	0.03387
1988.34995	0.03342
1986.42139	0.03317
1984.49282	0.03336
1982.56426	0.03362
1980.63569	0.03356
1978.70713	0.03281
1976.77856	0.03187
1974.85000	0.03153
1972.92144	0.03177
1970.99287	0.03239
1969.06431	0.03312
1967.13574	0.03370
1965.20718	0.03380
1963.27861	0.03353
1961.35005	0.03371
1959.42148	0.03448
1957.49292	0.03519
1955.56436	0.03574
1953.63579	0.03629
1951.70723	0.03675
1949.77866	0.03728
1947.85010	0.03818
1945.92153	0.03937
1943.99297	0.04050
1942.06440	0.04087
1940.13584	0.04038
1938.20728	0.03959
1936.27871	0.03861
1934.35015	0.03758
1932.42158	0.03689
1930.49302	0.03639
1928.56445	0.03573
1926.63589	0.03515
1924.70732	0.03519
1922.77876	0.03552
1920.85020	0.03546
1918.92163	0.03500
1916.99307	0.03428
1915.06450	0.03356
1913.13594	0.03329
1911.20737	0.03354
1909.27881	0.03388
1907.35024	0.03381
1905.42168	0.03340
1903.49312	0.03318
1901.56455	0.03343
1899.63599	0.03402
1897.70742	0.03468
1895.77886	0.03522
1893.85029	0.03571
1891.92173	0.03631
1889.99316	0.03680
1888.06460	0.03696
1886.13604	0.03720
1884.20747	0.03767
1882.27891	0.03808
1880.35034	0.03834
1878.42178	0.03851
1876.49321	0.03860
1874.56465	0.03880
1872.63608	0.03944
1870.70752	0.04068
1868.77896	0.04166
1866.85039	0.04110
1864.92183	0.03962
1862.99326	0.03846
1861.06470	0.03775
1859.13613	0.03722
1857.20757	0.03678
1855.27900	0.03627
1853.35044	0.03560
1851.42187	0.03499
1849.49331	0.03485
1847.56475	0.03535
1845.63618	0.03613
1843.70762	0.03604
1841.77905	0.03496
1839.85049	0.03420
1837.92192	0.03408
1835.99336	0.03413
1834.06479	0.03446
1832.13623	0.03554
1830.20767	0.03683
1828.27910	0.03718
1826.35054	0.03710
1824.42197	0.03710
1822.49341	0.03682
1820.56484	0.03658
1818.63628	0.03672
1816.70771	0.03714
1814.77915	0.03780
1812.85059	0.03884
1810.92202	0.03994
1808.99346	0.04045
1807.06489	0.04060
1805.13633	0.04106
1803.20776	0.04203
1801.27920	0.04286
1799.35063	0.04270
1797.42207	0.04203
1795.49351	0.04199
1793.56494	0.04270
1791.63638	0.04259
1789.70781	0.04093
1787.77925	0.03951
1785.85068	0.03919
1783.92212	0.03937
1781.99355	0.03965
1780.06499	0.03984
1778.13643	0.04001
1776.20786	0.04082
1774.27930	0.04258
1772.35073	0.04399
1770.42217	0.04349
1768.49360	0.04215
1766.56504	0.04118
1764.63647	0.04122
1762.70791	0.04226
1760.77935	0.04312
1758.85078	0.04351
1756.92222	0.04404
1754.99365	0.04470
1753.06509	0.04619
1751.13652	0.04884
1749.20796	0.05079
1747.27939	0.05098
1745.35083	0.05070
1743.42227	0.05078
1741.49370	0.05105
1739.56514	0.05096
1737.63657	0.05091
1735.70801	0.05213
1733.77944	0.05337
1731.85088	0.05206
1729.92231	0.04993
1727.99375	0.04845
1726.06519	0.04799
1724.13662	0.04837
1722.20806	0.04910
1720.27949	0.05064
1718.35093	0.05306
1716.42236	0.05347
1714.49380	0.05084
1712.56523	0.04814
1710.63667	0.04684
1708.70811	0.04714
1706.77954	0.04839
1704.85098	0.04916
1702.92241	0.04963
1700.99385	0.05112
1699.06528	0.05243
1697.13672	0.05192
1695.20815	0.04989
1693.27959	0.04782
1691.35103	0.04739
1689.42246	0.04830
1687.49390	0.04999
1685.56533	0.05292
1683.63677	0.05457
1681.70820	0.05252
1679.77964	0.05060
1677.85107	0.05050
1675.92251	0.05166
1673.99395	0.05268
1672.06538	0.05347
1670.13682	0.05421
1668.20825	0.05333
1666.27969	0.05200
1664.35112	0.05203
1662.42256	0.05228
1660.49399	0.05144
1658.56543	0.05091
1656.63687	0.05225
1654.70830	0.05569
1652.77974	0.05756
1650.85117	0.05554
1648.92261	0.05499
1646.99404	0.05522
1645.06548	0.05301
1643.13691	0.05040
1641.20835	0.04955
1639.27979	0.05050
1637.35122	0.05268
1635.42266	0.05332
1633.49409	0.05080
1631.56553	0.04880
1629.63696	0.04858
1627.70840	0.04905
1625.77983	0.04953
1623.85127	0.04985
1621.92271	0.04926
1619.99414	0.04883
1618.06558	0.04991
1616.13701	0.05080
1614.20845	0.05025
1612.27988	0.05077
1610.35132	0.05393
1608.42275	0.06007
1606.49419	0.06887
1604.56562	0.07919
1602.63706	0.08793
1600.70850	0.09072
1598.77993	0.08646
1596.85137	0.07866
1594.92280	0.07115
1592.99424	0.06552
1591.06567	0.06186
1589.13711	0.06023
1587.20854	0.06087
1585.27998	0.06306
1583.35142	0.06435
1581.42285	0.06289
1579.49429	0.06021
1577.56572	0.05820
1575.63716	0.05556
1573.70859	0.05241
1571.78003	0.05110
1569.85146	0.05093
1567.92290	0.04987
1565.99434	0.04860
1564.06577	0.04829
1562.13721	0.04969
1560.20864	0.05377
1558.28008	0.05639
1556.35151	0.05348
1554.42295	0.05086
1552.49438	0.04988
1550.56582	0.04985
1548.63726	0.05006
1546.70869	0.05100
1544.78013	0.05350
1542.85156	0.05694
1540.92300	0.05891
1538.99443	0.05566
1537.06587	0.05151
1535.13730	0.05016
1533.20874	0.04948
1531.28018	0.04774
1529.35161	0.04681
1527.42305	0.04734
1525.49448	0.04809
1523.56592	0.04904
1521.63735	0.04985
1519.70879	0.04916
1517.78022	0.04798
1515.85166	0.04652
1513.92310	0.04492
1511.99453	0.04462
1510.06597	0.04645
1508.13740	0.04972
1506.20884	0.04978
1504.28027	0.04674
1502.35171	0.04716
1500.42314	0.05399
1498.49458	0.07194
1496.56602	0.10535
1494.63745	0.14074
1492.70889	0.15810
1490.78032	0.14934
1488.85176	0.12083
1486.92319	0.09462
1484.99463	0.07849
1483.06606	0.06866
1481.13750	0.06240
1479.20894	0.05883
1477.28037	0.05769
1475.35181	0.05829
1473.42324	0.05878
1471.49468	0.05697
1469.56611	0.05458
1467.63755	0.05414
1465.70898	0.05539
1463.78042	0.05668
1461.85186	0.05878
1459.92329	0.06550
1457.99473	0.08533
1456.06616	0.12104
1454.13760	0.15087
1452.20903	0.16548
1450.28047	0.16473
1448.35190	0.15212
1446.42334	0.13647
1444.49478	0.12328
1442.56621	0.11248
1440.63765	0.10407
1438.70908	0.09792
1436.78052	0.09131
1434.85195	0.08349
1432.92339	0.07724
1430.99482	0.07256
1429.06626	0.06835
1427.13770	0.06503
1425.20913	0.06313
1423.28057	0.06216
1421.35200	0.06212
1419.42344	0.06263
1417.49487	0.06170
1415.56631	0.05966
1413.63774	0.05838
1411.70918	0.05797
1409.78062	0.05784
1407.85205	0.05804
1405.92349	0.05850
1403.99492	0.05846
1402.06636	0.05823
1400.13779	0.05877
1398.20923	0.05979
1396.28066	0.06081
1394.35210	0.06129
1392.42354	0.06086
1390.49497	0.06100
1388.56641	0.06269
1386.63784	0.06476
1384.70928	0.06615
1382.78071	0.06757
1380.85215	0.06951
1378.92358	0.07178
1376.99502	0.07421
1375.06646	0.07606
1373.13789	0.07605
1371.20933	0.07466
1369.28076	0.07333
1367.35220	0.07242
1365.42363	0.07216
1363.49507	0.07233
1361.56650	0.07167
1359.63794	0.07007
1357.70937	0.06860
1355.78081	0.06760
1353.85225	0.06686
1351.92368	0.06633
1349.99512	0.06604
1348.06655	0.06574
1346.13799	0.06523
1344.20942	0.06472
1342.28086	0.06464
1340.35229	0.06487
1338.42373	0.06465
1336.49517	0.06402
1334.56660	0.06380
1332.63804	0.06423
1330.70947	0.06490
1328.78091	0.06532
1326.85234	0.06527
1324.92378	0.06490
1322.99521	0.06456
1321.06665	0.06453
1319.13809	0.06476
1317.20952	0.06506
1315.28096	0.06539
1313.35239	0.06557
1311.42383	0.06529
1309.49526	0.06467
1307.56670	0.06399
1305.63813	0.06331
1303.70957	0.06265
1301.78101	0.06202
1299.85244	0.06141
1297.92388	0.06092
1295.99531	0.06062
1294.06675	0.06041
1292.13818	0.06017
1290.20962	0.05996
1288.28105	0.05994
1286.35249	0.06009
1284.42393	0.06033
1282.49536	0.06063
1280.56680	0.06093
1278.63823	0.06118
1276.70967	0.06136
1274.78110	0.06152
1272.85254	0.06166
1270.92397	0.06168
1268.99541	0.06163
1267.06685	0.06167
1265.13828	0.06176
1263.20972	0.06178
1261.28115	0.06171
1259.35259	0.06150
1257.42402	0.06117
1255.49546	0.06083
1253.56689	0.06055
1251.63833	0.06036
1249.70977	0.06018
1247.78120	0.05986
1245.85264	0.05949
1243.92407	0.05931
1241.99551	0.05919
1240.06694	0.05884
1238.13838	0.05839
1236.20981	0.05817
1234.28125	0.05819
1232.35269	0.05828
1230.42412	0.05829
1228.49556	0.05819
1226.56699	0.05800
1224.63843	0.05771
1222.70986	0.05742
1220.78130	0.05717
1218.85273	0.05687
1216.92417	0.05656
1214.99561	0.05638
1213.06704	0.05636
1211.13848	0.05648
1209.20991	0.05670
1207.28135	0.05709
1205.35278	0.05766
1203.42422	0.05829
1201.49565	0.05894
1199.56709	0.05951
1197.63853	0.05988
1195.70996	0.06013
1193.78140	0.06041
1191.85283	0.06081
1189.92427	0.06145
1187.99570	0.06256
1186.06714	0.06435
1184.13857	0.06667
1182.21001	0.06859
1180.28145	0.06897
1178.35288	0.06756
1176.42432	0.06524
1174.49575	0.06317
1172.56719	0.06184
1170.63862	0.06112
1168.71006	0.06080
1166.78149	0.06084
1164.85293	0.06129
1162.92437	0.06235
1160.99580	0.06426
1159.06724	0.06705
1157.13867	0.07018
1155.21011	0.07239
1153.28154	0.07224
1151.35298	0.06965
1149.42441	0.06610
1147.49585	0.06304
1145.56729	0.06090
1143.63872	0.05946
1141.71016	0.05843
1139.78159	0.05758
1137.85303	0.05693
1135.92446	0.05654
1133.99590	0.05642
1132.06733	0.05657
1130.13877	0.05692
1128.21021	0.05739
1126.28164	0.05799
1124.35308	0.05877
1122.42451	0.05975
1120.49595	0.06097
1118.56738	0.06240
1116.63882	0.06382
1114.71025	0.06505
1112.78169	0.06601
1110.85312	0.06676
1108.92456	0.06741
1106.99600	0.06807
1105.06743	0.06864
1103.13887	0.06912
1101.21030	0.06967
1099.28174	0.07039
1097.35317	0.07121
1095.42461	0.07202
1093.49604	0.07295
1091.56748	0.07414
1089.63892	0.07546
1087.71035	0.07689
1085.78179	0.07865
1083.85322	0.08073
1081.92466	0.08293
1079.99609	0.08526
1078.06753	0.08780
1076.13896	0.09050
1074.21040	0.09318
1072.28184	0.09563
1070.35327	0.09775
1068.42471	0.09924
1066.49614	0.09917
1064.56758	0.09706
1062.63901	0.09415
1060.71045	0.09200
1058.78188	0.09078
1056.85332	0.08964
1054.92476	0.08821
1052.99619	0.08683
1051.06763	0.08561
1049.13906	0.08451
1047.21050	0.08355
1045.28193	0.08266
1043.35337	0.08186
1041.42480	0.08154
1039.49624	0.08231
1037.56768	0.08486
1035.63911	0.08985
1033.71055	0.09747
1031.78198	0.10653
1029.85342	0.11434
1027.92485	0.11768
1025.99629	0.11503
1024.06772	0.10851
1022.13916	0.10170
1020.21060	0.09624
1018.28203	0.09208
1016.35347	0.08877
1014.42490	0.08590
1012.49634	0.08337
1010.56777	0.08134
1008.63921	0.08009
1006.71064	0.07975
1004.78208	0.07981
1002.85352	0.07902
1000.92495	0.07659
998.99639	0.07327
997.06782	0.07038
995.13926	0.06848
993.21069	0.06739
991.28213	0.06689
989.35356	0.06691
987.42500	0.06737
985.49644	0.06809
983.56787	0.06886
981.63931	0.06943
979.71074	0.06949
977.78218	0.06892
975.85361	0.06797
973.92505	0.06715
971.99648	0.06691
970.06792	0.06737
968.13936	0.06832
966.21079	0.06932
964.28223	0.06976
962.35366	0.06916
960.42510	0.06751
958.49653	0.06529
956.56797	0.06320
954.63940	0.06174
952.71084	0.06100
950.78228	0.06068
948.85371	0.06059
946.92515	0.06077
944.99658	0.06114
943.06802	0.06132
941.13945	0.06105
939.21089	0.06028
937.28232	0.05904
935.35376	0.05752
933.42520	0.05614
931.49663	0.05508
929.56807	0.05436
927.63950	0.05406
925.71094	0.05426
923.78237	0.05487
921.85381	0.05575
919.92524	0.05701
917.99668	0.05910
916.06812	0.06225
914.13955	0.06642
912.21099	0.07130
910.28242	0.07635
908.35386	0.08044
906.42529	0.08233
904.49673	0.08157
902.56816	0.07854
900.63960	0.07381
898.71104	0.06824
896.78247	0.06315
894.85391	0.05935
892.92534	0.05673
890.99678	0.05479
889.06821	0.05321
887.13965	0.05192
885.21108	0.05089
883.28252	0.05014
881.35396	0.04957
879.42539	0.04894
877.49683	0.04816
875.56826	0.04754
873.63970	0.04720
871.71113	0.04687
869.78257	0.04631
867.85400	0.04562
865.92544	0.04503
863.99687	0.04457
862.06831	0.04419
860.13975	0.04389
858.21118	0.04383
856.28262	0.04411
854.35405	0.04478
852.42549	0.04596
850.49692	0.04783
848.56836	0.05030
846.63979	0.05288
844.71123	0.05497
842.78267	0.05616
840.85410	0.05611
838.92554	0.05452
836.99697	0.05144
835.06841	0.04750
833.13984	0.04364
831.21128	0.04040
829.28271	0.03790
827.35415	0.03598
825.42559	0.03443
823.49702	0.03298
821.56846	0.03142
819.63989	0.02974
817.71133	0.02780
815.78276	0.02546
813.85420	0.02272
811.92563	0.01953
809.99707	0.01586
808.06851	0.01176
806.13994	0.00738
804.21138	0.00295
802.28281	-0.00138
800.35425	-0.00565
798.42568	-0.00954
796.49712	-0.01257
794.56855	-0.01451
792.63999	-0.01549
790.71143	-0.01573
788.78286	-0.01511
786.85430	-0.01325
784.92573	-0.01028
782.99717	-0.00628
781.06860	-0.00066
779.14004	0.00692
777.21147	0.01630
775.28291	0.02728
773.35435	0.03981
771.42578	0.05378
769.49722	0.06868
767.56865	0.08395
765.64009	0.09947
763.71152	0.11542
761.78296	0.13188
759.85439	0.14831
757.92583	0.16306
755.99727	0.17399
754.06870	0.18016
752.14014	0.18262
750.21157	0.18301
748.28301	0.18135
746.35444	0.17554
744.42588	0.16410
742.49731	0.14831
740.56875	0.13114
738.64019	0.11481
736.71162	0.09969
734.78306	0.08538
732.85449	0.07214
730.92593	0.06070
728.99736	0.05171
727.06880	0.04524
725.14023	0.04099
723.21167	0.03946
721.28311	0.03774
719.35454	0.03718
717.42598	0.03839
715.49741	0.04162
713.56885	0.04894
711.64028	0.06213
709.71172	0.08359
707.78315	0.11621
705.85459	0.16207
703.92603	0.22229
701.99746	0.29802
700.06890	0.38975
698.14033	0.48841
696.21177	0.55865
694.28320	0.55174
692.35464	0.46999
690.42607	0.36846
688.49751	0.28741
686.56895	0.23389
684.64038	0.20014
682.71182	0.17769
680.78325	0.16177
678.85469	0.15019
676.92612	0.14168
674.99756	0.13551
673.06899	0.12985
671.14043	0.11678
669.21187	0.09740
667.28330	0.10096
665.35474	0.09996
663.42617	0.10243
661.49761	0.10070
659.56904	0.09630
657.64048	0.09205
655.71191	0.08831
653.78335	0.08519
651.85479	0.08260
649.92622	0.08025
647.99766	0.07811
646.06909	0.07600
644.14053	0.07389
642.21196	0.07214
640.28340	0.07039
638.35483	0.06782
636.42627	0.06344
634.49771	0.05711
632.56914	0.05083
630.64058	0.04815
628.71201	0.05060
626.78345	0.05719
624.85488	0.06471
622.92632	0.07155
620.99775	0.07675
619.06919	0.07937
617.14062	0.07991
615.21206	0.07940
613.28350	0.07808
611.35493	0.07623
609.42637	0.07501
607.49780	0.07493
605.56924	0.07499
603.64067	0.07469
601.71211	0.07448
599.78354	0.07468
