3997.91411	0.01116
3995.98555	0.01091
3994.05698	0.01065
3992.12842	0.01056
3990.19985	0.01063
3988.27129	0.01068
3986.34272	0.01067
3984.41416	0.01074
3982.48560	0.01097
3980.55703	0.01111
3978.62847	0.01109
3976.69990	0.01114
3974.77134	0.01125
3972.84277	0.01118
3970.91421	0.01104
3968.98564	0.01110
3967.05708	0.01123
3965.12852	0.01105
3963.19995	0.01068
3961.27139	0.01052
3959.34282	0.01056
3957.41426	0.01061
3955.48569	0.01072
3953.55713	0.01088
3951.62856	0.01093
3949.70000	0.01083
3947.77144	0.01075
3945.84287	0.01078
3943.91431	0.01086
3941.98574	0.01094
3940.05718	0.01094
3938.12861	0.01086
3936.20005	0.01086
3934.27148	0.01111
3932.34292	0.01150
3930.41436	0.01164
3928.48579	0.01151
3926.55723	0.01138
3924.62866	0.01135
3922.70010	0.01143
3920.77153	0.01163
3918.84297	0.01175
3916.91440	0.01161
3914.98584	0.01133
3913.05728	0.01113
3911.12871	0.01109
3909.20015	0.01118
3907.27158	0.01146
3905.34302	0.01208
3903.41445	0.01266
3901.48589	0.01267
3899.55732	0.01219
3897.62876	0.01154
3895.70020	0.01116
3893.77163	0.01130
3891.84307	0.01164
3889.91450	0.01182
3887.98594	0.01207
3886.05737	0.01235
3884.12881	0.01221
3882.20024	0.01201
3880.27168	0.01190
3878.34312	0.01160
3876.41455	0.01145
3874.48599	0.01156
3872.55742	0.01185
3870.62886	0.01230
3868.70029	0.01243
3866.77173	0.01212
3864.84316	0.01184
3862.91460	0.01151
3860.98604	0.01110
3859.05747	0.01105
3857.12891	0.01148
3855.20034	0.01225
3853.27178	0.01260
3851.34321	0.01189
3849.41465	0.01113
3847.48608	0.01083
3845.55752	0.01093
3843.62896	0.01135
3841.70039	0.01200
3839.77183	0.01262
3837.84326	0.01282
3835.91470	0.01248
3833.98613	0.01204
3832.05757	0.01175
3830.12900	0.01143
3828.20044	0.01113
3826.27187	0.01098
3824.34331	0.01109
3822.41475	0.01160
3820.48618	0.01189
3818.55762	0.01161
3816.62905	0.01139
3814.70049	0.01121
3812.77192	0.01100
3810.84336	0.01095
3808.91479	0.01113
3806.98623	0.01137
3805.05767	0.01132
3803.12910	0.01128
3801.20054	0.01137
3799.27197	0.01134
3797.34341	0.01131
3795.41484	0.01098
3793.48628	0.01049
3791.55771	0.01039
3789.62915	0.01054
3787.70059	0.01050
3785.77202	0.01032
3783.84346	0.01029
3781.91489	0.01050
3779.98633	0.01071
3778.05776	0.01057
3776.12920	0.01021
3774.20063	0.01003
3772.27207	0.01016
3770.34351	0.01045
3768.41494	0.01044
3766.48638	0.01015
3764.55781	0.00988
3762.62925	0.00985
3760.70068	0.01015
3758.77212	0.01050
3756.84355	0.01060
3754.91499	0.01088
3752.98643	0.01158
3751.05786	0.01201
3749.12930	0.01164
3747.20073	0.01130
3745.27217	0.01114
3743.34360	0.01066
3741.41504	0.01010
3739.48647	0.01004
3737.55791	0.01060
3735.62935	0.01127
3733.70078	0.01115
3731.77222	0.01042
3729.84365	0.00981
3727.91509	0.00967
3725.98652	0.00987
3724.05796	0.00993
3722.12939	0.00978
3720.20083	0.00960
3718.27227	0.00938
3716.34370	0.00933
3714.41514	0.00957
3712.48657	0.00998
3710.55801	0.01011
3708.62944	0.00984
3706.70088	0.00956
3704.77231	0.00947
3702.84375	0.00954
3700.91519	0.00942
3698.98662	0.00917
3697.05806	0.00914
3695.12949	0.00931
3693.20093	0.00966
3691.27236	0.01031
3689.34380	0.01082
3687.41523	0.01049
3685.48667	0.00976
3683.55811	0.00928
3681.62954	0.00924
3679.70098	0.00962
3677.77241	0.01015
3675.84385	0.01057
3673.91528	0.01075
3671.98672	0.01091
3670.05815	0.01090
3668.12959	0.01027
3666.20103	0.00947
3664.27246	0.00904
3662.34390	0.00906
3660.41533	0.00938
3658.48677	0.00977
3656.55820	0.00999
3654.62964	0.00995
3652.70107	0.01027
3650.77251	0.01122
3648.84395	0.01168
3646.91538	0.01088
3644.98682	0.01000
3643.05825	0.00956
3641.12969	0.00950
3639.20112	0.00958
3637.27256	0.00960
3635.34399	0.00975
3633.41543	0.01008
3631.48687	0.01054
3629.55830	0.01103
3627.62974	0.01094
3625.70117	0.01040
3623.77261	0.01018
3621.84404	0.01055
3619.91548	0.01128
3617.98691	0.01155
3616.05835	0.01131
3614.12979	0.01127
3612.20122	0.01150
3610.27266	0.01174
3608.34409	0.01186
3606.41553	0.01168
3604.48696	0.01137
3602.55840	0.01114
3600.62983	0.01093
3598.70127	0.01085
3596.77271	0.01109
3594.84414	0.01141
3592.91558	0.01142
3590.98701	0.01132
3589.05845	0.01140
3587.12988	0.01125
3585.20132	0.01052
3583.27275	0.00991
3581.34419	0.00988
3579.41562	0.01012
3577.48706	0.01022
3575.55850	0.01013
3573.62993	0.00995
3571.70137	0.00991
3569.77280	0.01023
3567.84424	0.01059
3565.91567	0.01062
3563.98711	0.01053
3562.05854	0.01050
3560.12998	0.01054
3558.20142	0.01060
3556.27285	0.01057
3554.34429	0.01068
3552.41572	0.01095
3550.48716	0.01093
3548.55859	0.01069
3546.63003	0.01057
3544.70146	0.01066
3542.77290	0.01079
3540.84434	0.01102
3538.91577	0.01146
3536.98721	0.01180
3535.05864	0.01178
3533.13008	0.01155
3531.20151	0.01138
3529.27295	0.01139
3527.34438	0.01142
3525.41582	0.01145
3523.48726	0.01158
3521.55869	0.01168
3519.63013	0.01181
3517.70156	0.01202
3515.77300	0.01208
3513.84443	0.01194
3511.91587	0.01182
3509.98730	0.01181
3508.05874	0.01174
3506.13018	0.01157
3504.20161	0.01156
3502.27305	0.01171
3500.34448	0.01153
3498.41592	0.01132
3496.48735	0.01182
3494.55879	0.01281
3492.63022	0.01334
3490.70166	0.01314
3488.77310	0.01256
3486.84453	0.01219
3484.91597	0.01226
3482.98740	0.01235
3481.05884	0.01215
3479.13027	0.01197
3477.20171	0.01206
3475.27314	0.01218
3473.34458	0.01214
3471.41602	0.01219
3469.48745	0.01263
3467.55889	0.01307
3465.63032	0.01304
3463.70176	0.01277
3461.77319	0.01280
3459.84463	0.01314
3457.91606	0.01335
3455.98750	0.01327
3454.05894	0.01301
3452.13037	0.01265
3450.20181	0.01253
3448.27324	0.01281
3446.34468	0.01316
3444.41611	0.01343
3442.48755	0.01368
3440.55898	0.01371
3438.63042	0.01329
3436.70186	0.01277
3434.77329	0.01265
3432.84473	0.01277
3430.91616	0.01284
3428.98760	0.01299
3427.05903	0.01341
3425.13047	0.01385
3423.20190	0.01397
3421.27334	0.01379
3419.34478	0.01367
3417.41621	0.01370
3415.48765	0.01370
3413.55908	0.01366
3411.63052	0.01367
3409.70195	0.01371
3407.77339	0.01361
3405.84482	0.01343
3403.91626	0.01331
3401.98770	0.01321
3400.05913	0.01310
3398.13057	0.01299
3396.20200	0.01282
3394.27344	0.01262
3392.34487	0.01273
3390.41631	0.01321
3388.48774	0.01372
3386.55918	0.01399
3384.63062	0.01387
3382.70205	0.01357
3380.77349	0.01356
3378.84492	0.01374
3376.91636	0.01385
3374.98779	0.01389
3373.05923	0.01380
3371.13066	0.01351
3369.20210	0.01320
3367.27354	0.01309
3365.34497	0.01327
3363.41641	0.01361
3361.48784	0.01386
3359.55928	0.01384
3357.63071	0.01357
3355.70215	0.01323
3353.77358	0.01303
3351.84502	0.01308
3349.91646	0.01328
3347.98789	0.01331
3346.05933	0.01311
3344.13076	0.01295
3342.20220	0.01294
3340.27363	0.01308
3338.34507	0.01328
3336.41650	0.01336
3334.48794	0.01331
3332.55937	0.01332
3330.63081	0.01342
3328.70225	0.01351
3326.77368	0.01341
3324.84512	0.01302
3322.91655	0.01270
3320.98799	0.01273
3319.05942	0.01283
3317.13086	0.01281
3315.20229	0.01283
3313.27373	0.01294
3311.34517	0.01296
3309.41660	0.01279
3307.48804	0.01260
3305.55947	0.01251
3303.63091	0.01236
3301.70234	0.01216
3299.77378	0.01218
3297.84521	0.01248
3295.91665	0.01271
3293.98809	0.01263
3292.05952	0.01244
3290.13096	0.01239
3288.20239	0.01237
3286.27383	0.01232
3284.34526	0.01232
3282.41670	0.01234
3280.48813	0.01225
3278.55957	0.01218
3276.63101	0.01214
3274.70244	0.01204
3272.77388	0.01200
3270.84531	0.01207
3268.91675	0.01211
3266.98818	0.01216
3265.05962	0.01210
3263.13105	0.01177
3261.20249	0.01153
3259.27393	0.01176
3257.34536	0.01204
3255.41680	0.01188
3253.48823	0.01161
3251.55967	0.01161
3249.63110	0.01174
3247.70254	0.01165
3245.77397	0.01130
3243.84541	0.01107
3241.91685	0.01117
3239.98828	0.01138
3238.05972	0.01132
3236.13115	0.01104
3234.20259	0.01088
3232.27402	0.01099
3230.34546	0.01117
3228.41689	0.01130
3226.48833	0.01134
3224.55977	0.01124
3222.63120	0.01096
3220.70264	0.01070
3218.77407	0.01062
3216.84551	0.01051
3214.91694	0.01038
3212.98838	0.01033
3211.05981	0.01036
3209.13125	0.01051
3207.20269	0.01064
3205.27412	0.01051
3203.34556	0.01041
3201.41699	0.01054
3199.48843	0.01049
3197.55986	0.01014
3195.63130	0.00980
3193.70273	0.00963
3191.77417	0.00954
3189.84561	0.00945
3187.91704	0.00945
3185.98848	0.00972
3184.05991	0.01001
3182.13135	0.00986
3180.20278	0.00938
3178.27422	0.00914
3176.34565	0.00920
3174.41709	0.00923
3172.48853	0.00911
3170.55996	0.00883
3168.63140	0.00855
3166.70283	0.00850
3164.77427	0.00859
3162.84570	0.00862
3160.91714	0.00859
3158.98857	0.00852
3157.06001	0.00840
3155.13145	0.00832
3153.20288	0.00832
3151.27432	0.00826
3149.34575	0.00808
3147.41719	0.00800
3145.48862	0.00817
3143.56006	0.00831
3141.63149	0.00815
3139.70293	0.00785
3137.77437	0.00773
3135.84580	0.00764
3133.91724	0.00736
3131.98867	0.00718
3130.06011	0.00731
3128.13154	0.00749
3126.20298	0.00749
3124.27441	0.00744
3122.34585	0.00740
3120.41729	0.00721
3118.48872	0.00701
3116.56016	0.00704
3114.63159	0.00726
3112.70303	0.00750
3110.77446	0.00750
3108.84590	0.00731
3106.91733	0.00715
3104.98877	0.00706
3103.06021	0.00702
3101.13164	0.00705
3099.20308	0.00719
3097.27451	0.00754
3095.34595	0.00791
3093.41738	0.00800
3091.48882	0.00785
3089.56025	0.00773
3087.63169	0.00769
3085.70312	0.00772
3083.77456	0.00793
3081.84600	0.00820
3079.91743	0.00825
3077.98887	0.00822
3076.06030	0.00835
3074.13174	0.00849
3072.20317	0.00846
3070.27461	0.00831
3068.34604	0.00819
3066.41748	0.00809
3064.48892	0.00790
3062.56035	0.00755
3060.63179	0.00723
3058.70322	0.00719
3056.77466	0.00736
3054.84609	0.00735
3052.91753	0.00706
3050.98896	0.00691
3049.06040	0.00691
3047.13184	0.00677
3045.20327	0.00658
3043.27471	0.00659
3041.34614	0.00662
3039.41758	0.00645
3037.48901	0.00623
3035.56045	0.00615
3033.63188	0.00622
3031.70332	0.00635
3029.77476	0.00639
3027.84619	0.00634
3025.91763	0.00622
3023.98906	0.00604
3022.06050	0.00591
3020.13193	0.00592
3018.20337	0.00591
3016.27480	0.00570
3014.34624	0.00540
3012.41768	0.00525
3010.48911	0.00533
3008.56055	0.00554
3006.63198	0.00567
3004.70342	0.00567
3002.77485	0.00564
3000.84629	0.00570
2998.91772	0.00583
2996.98916	0.00600
2995.06060	0.00611
2993.13203	0.00610
2991.20347	0.00618
2989.27490	0.00651
2987.34634	0.00694
2985.41777	0.00737
2983.48921	0.00799
2981.56064	0.00884
2979.63208	0.00982
2977.70352	0.01074
2975.77495	0.01168
2973.84639	0.01288
2971.91782	0.01434
2969.98926	0.01599
2968.06069	0.01801
2966.13213	0.02033
2964.20356	0.02271
2962.27500	0.02510
2960.34644	0.02752
2958.41787	0.02986
2956.48931	0.03199
2954.56074	0.03383
2952.63218	0.03556
2950.70361	0.03761
2948.77505	0.04057
2946.84648	0.04508
2944.91792	0.05157
2942.98936	0.06006
2941.06079	0.07055
2939.13223	0.08320
2937.20366	0.09822
2935.27510	0.11582
2933.34653	0.13642
2931.41797	0.16098
2929.48940	0.19100
2927.56084	0.22819
2925.63228	0.27467
2923.70371	0.33298
2921.77515	0.40418
2919.84658	0.48493
2917.91802	0.56403
2915.98945	0.61907
2914.06089	0.62742
2912.13232	0.59074
2910.20376	0.53271
2908.27520	0.47435
2906.34663	0.42506
2904.41807	0.38648
2902.48950	0.35699
2900.56094	0.33392
2898.63237	0.31451
2896.70381	0.29701
2894.77524	0.28072
2892.84668	0.26501
2890.91812	0.24941
2888.98955	0.23392
2887.06099	0.21869
2885.13242	0.20368
2883.20386	0.18888
2881.27529	0.17433
2879.34673	0.16016
2877.41816	0.14674
2875.48960	0.13483
2873.56104	0.12519
2871.63247	0.11795
2869.70391	0.11282
2867.77534	0.11000
2865.84678	0.11024
2863.91821	0.11465
2861.98965	0.12485
2860.06108	0.14304
2858.13252	0.17260
2856.20396	0.21953
2854.27539	0.29258
2852.34683	0.39767
2850.41826	0.51894
2848.48970	0.59454
2846.56113	0.56613
2844.63257	0.47185
2842.70400	0.37606
2840.77544	0.30196
2838.84687	0.24906
2836.91831	0.21169
2834.98975	0.18480
2833.06118	0.16495
2831.13262	0.14978
2829.20405	0.13769
2827.27549	0.12773
2825.34692	0.11948
2823.41836	0.11264
2821.48979	0.10692
2819.56123	0.10201
2817.63267	0.09763
2815.70410	0.09374
2813.77554	0.09037
2811.84697	0.08737
2809.91841	0.08453
2807.98984	0.08187
2806.06128	0.07950
2804.13271	0.07736
2802.20415	0.07535
2800.27559	0.07346
2798.34702	0.07169
2796.41846	0.06999
2794.48989	0.06840
2792.56133	0.06699
2790.63276	0.06563
2788.70420	0.06417
2786.77563	0.06267
2784.84707	0.06127
2782.91851	0.05999
2780.98994	0.05888
2779.06138	0.05789
2777.13281	0.05686
2775.20425	0.05580
2773.27568	0.05474
2771.34712	0.05374
2769.41855	0.05294
2767.48999	0.05221
2765.56143	0.05137
2763.63286	0.05058
2761.70430	0.04996
2759.77573	0.04943
2757.84717	0.04893
2755.91860	0.04848
2753.99004	0.04800
2752.06147	0.04756
2750.13291	0.04718
2748.20435	0.04677
2746.27578	0.04643
2744.34722	0.04619
2742.41865	0.04593
2740.49009	0.04562
2738.56152	0.04532
2736.63296	0.04499
2734.70439	0.04459
2732.77583	0.04416
2730.84727	0.04381
2728.91870	0.04346
2726.99014	0.04305
2725.06157	0.04267
2723.13301	0.04232
2721.20444	0.04195
2719.27588	0.04161
2717.34731	0.04126
2715.41875	0.04084
2713.49019	0.04046
2711.56162	0.04018
2709.63306	0.03993
2707.70449	0.03967
2705.77593	0.03932
2703.84736	0.03893
2701.91880	0.03868
2699.99023	0.03855
2698.06167	0.03842
2696.13311	0.03820
2694.20454	0.03781
2692.27598	0.03732
2690.34741	0.03703
2688.41885	0.03702
2686.49028	0.03705
2684.56172	0.03696
2682.63315	0.03682
2680.70459	0.03672
2678.77603	0.03670
2676.84746	0.03678
2674.91890	0.03683
2672.99033	0.03682
2671.06177	0.03684
2669.13320	0.03690
2667.20464	0.03704
2665.27607	0.03723
2663.34751	0.03738
2661.41895	0.03741
2659.49038	0.03731
2657.56182	0.03712
2655.63325	0.03695
2653.70469	0.03686
2651.77612	0.03676
2649.84756	0.03658
2647.91899	0.03638
2645.99043	0.03635
2644.06187	0.03645
2642.13330	0.03654
2640.20474	0.03662
2638.27617	0.03672
2636.34761	0.03666
2634.41904	0.03644
2632.49048	0.03616
2630.56191	0.03587
2628.63335	0.03556
2626.70479	0.03519
2624.77622	0.03469
2622.84766	0.03414
2620.91909	0.03367
2618.99053	0.03331
2617.06196	0.03300
2615.13340	0.03267
2613.20483	0.03234
2611.27627	0.03210
2609.34771	0.03186
2607.41914	0.03149
2605.49058	0.03105
2603.56201	0.03072
2601.63345	0.03054
2599.70488	0.03040
2597.77632	0.03013
2595.84775	0.02976
2593.91919	0.02942
2591.99062	0.02918
2590.06206	0.02901
2588.13350	0.02881
2586.20493	0.02864
2584.27637	0.02850
2582.34780	0.02826
2580.41924	0.02802
2578.49067	0.02788
2576.56211	0.02778
2574.63354	0.02759
2572.70498	0.02736
2570.77642	0.02714
2568.84785	0.02690
2566.91929	0.02667
2564.99072	0.02650
2563.06216	0.02640
2561.13359	0.02635
2559.20503	0.02626
2557.27646	0.02613
2555.34790	0.02604
2553.41934	0.02593
2551.49077	0.02578
2549.56221	0.02561
2547.63364	0.02541
2545.70508	0.02514
2543.77651	0.02487
2541.84795	0.02468
2539.91938	0.02451
2537.99082	0.02438
2536.06226	0.02441
2534.13369	0.02454
2532.20513	0.02464
2530.27656	0.02460
2528.34800	0.02440
2526.41943	0.02412
2524.49087	0.02396
2522.56230	0.02394
2520.63374	0.02387
2518.70518	0.02364
2516.77661	0.02343
2514.84805	0.02330
2512.91948	0.02321
2510.99092	0.02317
2509.06235	0.02318
2507.13379	0.02315
2505.20522	0.02303
2503.27666	0.02289
2501.34810	0.02282
2499.41953	0.02277
2497.49097	0.02261
2495.56240	0.02242
2493.63384	0.02237
2491.70527	0.02238
2489.77671	0.02231
2487.84814	0.02227
2485.91958	0.02232
2483.99102	0.02235
2482.06245	0.02222
2480.13389	0.02197
2478.20532	0.02184
2476.27676	0.02194
2474.34819	0.02200
2472.41963	0.02180
2470.49106	0.02147
2468.56250	0.02133
2466.63394	0.02137
2464.70537	0.02140
2462.77681	0.02137
2460.84824	0.02125
2458.91968	0.02115
2456.99111	0.02111
2455.06255	0.02102
2453.13398	0.02092
2451.20542	0.02095
2449.27686	0.02095
2447.34829	0.02078
2445.41973	0.02059
2443.49116	0.02053
2441.56260	0.02062
2439.63403	0.02069
2437.70547	0.02053
2435.77690	0.02025
2433.84834	0.02018
2431.91978	0.02036
2429.99121	0.02053
2428.06265	0.02053
2426.13408	0.02047
2424.20552	0.02056
2422.27695	0.02067
2420.34839	0.02061
2418.41982	0.02056
2416.49126	0.02067
2414.56270	0.02074
2412.63413	0.02066
2410.70557	0.02056
2408.77700	0.02044
2406.84844	0.02020
2404.91987	0.02003
2402.99131	0.02003
2401.06274	0.02011
2399.13418	0.02019
2397.20562	0.02011
2395.27705	0.01990
2393.34849	0.01972
2391.41992	0.01963
2389.49136	0.01958
2387.56279	0.01955
2385.63423	0.01956
2383.70566	0.01956
2381.77710	0.01949
2379.84854	0.01931
2377.91997	0.01897
2375.99141	0.01854
2374.06284	0.01804
2372.13428	0.01748
2370.20571	0.01709
2368.27715	0.01710
2366.34858	0.01724
2364.42002	0.01678
2362.49146	0.01723
2360.56289	0.01704
2358.63433	0.01627
2356.70576	0.01836
2354.77720	0.01726
2352.84863	0.01748
2350.92007	0.02025
2348.99150	0.02199
2347.06294	0.02260
2345.13437	0.02277
2343.20581	0.02015
2341.27725	0.01500
2339.34868	0.01352
2337.42012	0.01639
2335.49155	0.02110
2333.56299	0.02431
2331.63442	0.02549
2329.70586	0.02579
2327.77729	0.02562
2325.84873	0.02599
2323.92017	0.02623
2321.99160	0.02574
2320.06304	0.02501
2318.13447	0.02441
2316.20591	0.02386
2314.27734	0.02341
2312.34878	0.02275
2310.42021	0.02171
2308.49165	0.02088
2306.56309	0.02013
2304.63452	0.01981
2302.70596	0.01994
2300.77739	0.02022
2298.84883	0.02055
2296.92026	0.02081
2294.99170	0.02077
2293.06313	0.02047
2291.13457	0.02034
2289.20601	0.02034
2287.27744	0.02037
2285.34888	0.02045
2283.42031	0.02049
2281.49175	0.02040
2279.56318	0.02016
2277.63462	0.01992
2275.70605	0.01978
2273.77749	0.01971
2271.84893	0.01960
2269.92036	0.01941
2267.99180	0.01925
2266.06323	0.01905
2264.13467	0.01880
2262.20610	0.01879
2260.27754	0.01909
2258.34897	0.01931
2256.42041	0.01903
2254.49185	0.01840
2252.56328	0.01788
2250.63472	0.01768
2248.70615	0.01773
2246.77759	0.01768
2244.84902	0.01746
2242.92046	0.01739
2240.99189	0.01757
2239.06333	0.01774
2237.13477	0.01780
2235.20620	0.01788
2233.27764	0.01817
2231.34907	0.01844
2229.42051	0.01832
2227.49194	0.01801
2225.56338	0.01797
2223.63481	0.01811
2221.70625	0.01799
2219.77769	0.01756
2217.84912	0.01725
2215.92056	0.01719
2213.99199	0.01716
2212.06343	0.01710
2210.13486	0.01709
2208.20630	0.01709
2206.27773	0.01692
2204.34917	0.01678
2202.42061	0.01682
2200.49204	0.01678
2198.56348	0.01681
2196.63491	0.01721
2194.70635	0.01764
2192.77778	0.01776
2190.84922	0.01761
2188.92065	0.01737
2186.99209	0.01713
2185.06353	0.01671
2183.13496	0.01627
2181.20640	0.01667
2179.27783	0.01772
2177.34927	0.01801
2175.42070	0.01716
2173.49214	0.01613
2171.56357	0.01588
2169.63501	0.01643
2167.70645	0.01701
2165.77788	0.01731
2163.84932	0.01743
2161.92075	0.01660
2159.99219	0.01428
2158.06362	0.01239
2156.13506	0.01265
2154.20649	0.01376
2152.27793	0.01430
2150.34937	0.01440
2148.42080	0.01453
2146.49224	0.01481
2144.56367	0.01499
2142.63511	0.01480
2140.70654	0.01452
2138.77798	0.01444
2136.84941	0.01430
2134.92085	0.01400
2132.99229	0.01394
2131.06372	0.01435
2129.13516	0.01498
2127.20659	0.01548
2125.27803	0.01582
2123.34946	0.01603
2121.42090	0.01613
2119.49233	0.01628
2117.56377	0.01656
2115.63521	0.01697
2113.70664	0.01736
2111.77808	0.01741
2109.84951	0.01705
2107.92095	0.01669
2105.99238	0.01671
2104.06382	0.01685
2102.13525	0.01673
2100.20669	0.01639
2098.27812	0.01607
2096.34956	0.01578
2094.42100	0.01553
2092.49243	0.01566
2090.56387	0.01612
2088.63530	0.01646
2086.70674	0.01668
2084.77817	0.01680
2082.84961	0.01672
2080.92104	0.01657
2078.99248	0.01662
2077.06392	0.01678
2075.13535	0.01665
2073.20679	0.01622
2071.27822	0.01593
2069.34966	0.01593
2067.42109	0.01602
2065.49253	0.01620
2063.56396	0.01653
2061.63540	0.01679
2059.70684	0.01686
2057.77827	0.01678
2055.84971	0.01670
2053.92114	0.01702
2051.99258	0.01773
2050.06401	0.01806
2048.13545	0.01770
2046.20688	0.01733
2044.27832	0.01736
2042.34976	0.01742
2040.42119	0.01720
2038.49263	0.01685
2036.56406	0.01671
2034.63550	0.01683
2032.70693	0.01699
2030.77837	0.01699
2028.84980	0.01680
2026.92124	0.01661
2024.99268	0.01655
2023.06411	0.01638
2021.13555	0.01621
2019.20698	0.01646
2017.27842	0.01684
2015.34985	0.01687
2013.42129	0.01646
2011.49272	0.01574
2009.56416	0.01505
2007.63560	0.01470
2005.70703	0.01482
2003.77847	0.01527
2001.84990	0.01567
1999.92134	0.01576
1997.99277	0.01552
1996.06421	0.01519
1994.13564	0.01534
1992.20708	0.01608
1990.27852	0.01644
1988.34995	0.01606
1986.42139	0.01584
1984.49282	0.01626
1982.56426	0.01673
1980.63569	0.01655
1978.70713	0.01559
1976.77856	0.01458
1974.85000	0.01420
1972.92144	0.01422
1970.99287	0.01412
1969.06431	0.01384
1967.13574	0.01391
1965.20718	0.01448
1963.27861	0.01469
1961.35005	0.01416
1959.42148	0.01384
1957.49292	0.01431
1955.56436	0.01487
1953.63579	0.01517
1951.70723	0.01538
1949.77866	0.01549
1947.85010	0.01551
1945.92153	0.01561
1943.99297	0.01594
1942.06440	0.01618
1940.13584	0.01603
1938.20728	0.01573
1936.27871	0.01543
1934.35015	0.01532
1932.42158	0.01548
1930.49302	0.01566
1928.56445	0.01578
1926.63589	0.01595
1924.70732	0.01626
1922.77876	0.01670
1920.85020	0.01704
1918.92163	0.01703
1916.99307	0.01675
1915.06450	0.01651
1913.13594	0.01655
1911.20737	0.01680
1909.27881	0.01711
1907.35024	0.01738
1905.42168	0.01754
1903.49312	0.01762
1901.56455	0.01778
1899.63599	0.01801
1897.70742	0.01812
1895.77886	0.01803
1893.85029	0.01788
1891.92173	0.01784
1889.99316	0.01781
1888.06460	0.01766
1886.13604	0.01749
1884.20747	0.01729
1882.27891	0.01717
1880.35034	0.01723
1878.42178	0.01723
1876.49321	0.01708
1874.56465	0.01701
1872.63608	0.01709
1870.70752	0.01714
1868.77896	0.01709
1866.85039	0.01706
1864.92183	0.01707
1862.99326	0.01702
1861.06470	0.01691
1859.13613	0.01687
1857.20757	0.01698
1855.27900	0.01713
1853.35044	0.01715
1851.42187	0.01710
1849.49331	0.01719
1847.56475	0.01741
1845.63618	0.01758
1843.70762	0.01747
1841.77905	0.01715
1839.85049	0.01706
1837.92192	0.01725
1835.99336	0.01744
1834.06479	0.01761
1832.13623	0.01802
1830.20767	0.01848
1828.27910	0.01859
1826.35054	0.01859
1824.42197	0.01869
1822.49341	0.01876
1820.56484	0.01879
1818.63628	0.01877
1816.70771	0.01872
1814.77915	0.01877
1812.85059	0.01892
1810.92202	0.01907
1808.99346	0.01910
1807.06489	0.01909
1805.13633	0.01923
1803.20776	0.01954
1801.27920	0.01988
1799.35063	0.02002
1797.42207	0.01999
1795.49351	0.02021
1793.56494	0.02083
1791.63638	0.02121
1789.70781	0.02097
1787.77925	0.02077
1785.85068	0.02096
1783.92212	0.02134
1781.99355	0.02163
1780.06499	0.02168
1778.13643	0.02165
1776.20786	0.02187
1774.27930	0.02245
1772.35073	0.02307
1770.42217	0.02323
1768.49360	0.02305
1766.56504	0.02286
1764.63647	0.02290
1762.70791	0.02330
1760.77935	0.02365
1758.85078	0.02377
1756.92222	0.02385
1754.99365	0.02394
1753.06509	0.02432
1751.13652	0.02516
1749.20796	0.02594
1747.27939	0.02627
1745.35083	0.02654
1743.42227	0.02705
1741.49370	0.02769
1739.56514	0.02813
1737.63657	0.02839
1735.70801	0.02899
1733.77944	0.02973
1731.85088	0.02966
1729.92231	0.02928
1727.99375	0.02920
1726.06519	0.02958
1724.13662	0.03028
1722.20806	0.03102
1720.27949	0.03191
1718.35093	0.03316
1716.42236	0.03395
1714.49380	0.03372
1712.56523	0.03331
1710.63667	0.03309
1708.70811	0.03308
1706.77954	0.03323
1704.85098	0.03327
1702.92241	0.03324
1700.99385	0.03340
1699.06528	0.03340
1697.13672	0.03273
1695.20815	0.03143
1693.27959	0.03023
1691.35103	0.02961
1689.42246	0.02934
1687.49390	0.02946
1685.56533	0.03011
1683.63677	0.03021
1681.70820	0.02914
1679.77964	0.02835
1677.85107	0.02834
1675.92251	0.02875
1673.99395	0.02901
1672.06538	0.02907
1670.13682	0.02910
1668.20825	0.02878
1666.27969	0.02849
1664.35112	0.02864
1662.42256	0.02883
1660.49399	0.02869
1658.56543	0.02869
1656.63687	0.02929
1654.70830	0.03059
1652.77974	0.03165
1650.85117	0.03157
1648.92261	0.03192
1646.99404	0.03284
1645.06548	0.03331
1643.13691	0.03347
1641.20835	0.03367
1639.27979	0.03372
1637.35122	0.03357
1635.42266	0.03290
1633.49409	0.03175
1631.56553	0.03099
1629.63696	0.03076
1627.70840	0.03080
1625.77983	0.03098
1623.85127	0.03103
1621.92271	0.03071
1619.99414	0.03055
1618.06558	0.03082
1616.13701	0.03087
1614.20845	0.03045
1612.27988	0.03015
1610.35132	0.03005
1608.42275	0.02993
1606.49419	0.02976
1604.56562	0.02970
1602.63706	0.02974
1600.70850	0.02975
1598.77993	0.02968
1596.85137	0.02961
1594.92280	0.02961
1592.99424	0.02966
1591.06567	0.02966
1589.13711	0.02959
1587.20854	0.02948
1585.27998	0.02943
1583.35142	0.02941
1581.42285	0.02939
1579.49429	0.02954
1577.56572	0.02994
1575.63716	0.02996
1573.70859	0.02944
1571.78003	0.02928
1569.85146	0.02945
1567.92290	0.02933
1565.99434	0.02905
1564.06577	0.02902
1562.13721	0.02950
1560.20864	0.03073
1558.28008	0.03139
1556.35151	0.03045
1554.42295	0.02957
1552.49438	0.02913
1550.56582	0.02901
1548.63726	0.02896
1546.70869	0.02909
1544.78013	0.02971
1542.85156	0.03070
1540.92300	0.03125
1538.99443	0.03020
1537.06587	0.02896
1535.13730	0.02868
1533.20874	0.02864
1531.28018	0.02822
1529.35161	0.02801
1527.42305	0.02820
1525.49448	0.02845
1523.56592	0.02880
1521.63735	0.02911
1519.70879	0.02884
1517.78022	0.02833
1515.85166	0.02772
1513.92310	0.02712
1511.99453	0.02700
1510.06597	0.02754
1508.13740	0.02849
1506.20884	0.02837
1504.28027	0.02713
1502.35171	0.02650
1500.42314	0.02668
1498.49458	0.02720
1496.56602	0.02726
1494.63745	0.02689
1492.70889	0.02688
1490.78032	0.02744
1488.85176	0.02788
1486.92319	0.02788
1484.99463	0.02812
1483.06606	0.02953
1481.13750	0.03352
1479.20894	0.04383
1477.28037	0.07118
1475.35181	0.12932
1473.42324	0.20918
1471.49468	0.24517
1469.56611	0.21865
1467.63755	0.18599
1465.70898	0.17306
1463.78042	0.17801
1461.85186	0.17649
1459.92329	0.15692
1457.99473	0.12659
1456.06616	0.10155
1454.13760	0.08913
1452.20903	0.08158
1450.28047	0.07554
1448.35190	0.07078
1446.42334	0.06712
1444.49478	0.06449
1442.56621	0.06259
1440.63765	0.06114
1438.70908	0.06008
1436.78052	0.05869
1434.85195	0.05656
1432.92339	0.05449
1430.99482	0.05261
1429.06626	0.05055
1427.13770	0.04848
1425.20913	0.04672
1423.28057	0.04528
1421.35200	0.04435
1419.42344	0.04383
1417.49487	0.04318
1415.56631	0.04239
1413.63774	0.04168
1411.70918	0.04105
1409.78062	0.04045
1407.85205	0.04005
1405.92349	0.03982
1403.99492	0.03942
1402.06636	0.03894
1400.13779	0.03863
1398.20923	0.03844
1396.28066	0.03827
1394.35210	0.03789
1392.42354	0.03732
1390.49497	0.03707
1388.56641	0.03727
1386.63784	0.03765
1384.70928	0.03834
1382.78071	0.03978
1380.85215	0.04203
1378.92358	0.04434
1376.99502	0.04573
1375.06646	0.04586
1373.13789	0.04518
1371.20933	0.04450
1369.28076	0.04402
1367.35220	0.04351
1365.42363	0.04295
1363.49507	0.04232
1361.56650	0.04145
1359.63794	0.04055
1357.70937	0.03996
1355.78081	0.03970
1353.85225	0.03963
1351.92368	0.03956
1349.99512	0.03934
1348.06655	0.03891
1346.13799	0.03838
1344.20942	0.03791
1342.28086	0.03754
1340.35229	0.03718
1338.42373	0.03660
1336.49517	0.03587
1334.56660	0.03526
1332.63804	0.03488
1330.70947	0.03471
1328.78091	0.03463
1326.85234	0.03460
1324.92378	0.03469
1322.99521	0.03493
1321.06665	0.03522
1319.13809	0.03548
1317.20952	0.03578
1315.28096	0.03618
1313.35239	0.03661
1311.42383	0.03690
1309.49526	0.03707
1307.56670	0.03722
1305.63813	0.03738
1303.70957	0.03751
1301.78101	0.03757
1299.85244	0.03751
1297.92388	0.03734
1295.99531	0.03713
1294.06675	0.03686
1292.13818	0.03654
1290.20962	0.03628
1288.28105	0.03613
1286.35249	0.03599
1284.42393	0.03580
1282.49536	0.03558
1280.56680	0.03539
1278.63823	0.03529
1276.70967	0.03528
1274.78110	0.03530
1272.85254	0.03534
1270.92397	0.03534
1268.99541	0.03529
1267.06685	0.03522
1265.13828	0.03516
1263.20972	0.03513
1261.28115	0.03508
1259.35259	0.03497
1257.42402	0.03484
1255.49546	0.03477
1253.56689	0.03469
1251.63833	0.03460
1249.70977	0.03456
1247.78120	0.03454
1245.85264	0.03443
1243.92407	0.03432
1241.99551	0.03424
1240.06694	0.03416
1238.13838	0.03408
1236.20981	0.03407
1234.28125	0.03412
1232.35269	0.03409
1230.42412	0.03392
1228.49556	0.03376
1226.56699	0.03368
1224.63843	0.03362
1222.70986	0.03362
1220.78130	0.03368
1218.85273	0.03370
1216.92417	0.03366
1214.99561	0.03363
1213.06704	0.03361
1211.13848	0.03364
1209.20991	0.03374
1207.28135	0.03390
1205.35278	0.03403
1203.42422	0.03408
1201.49565	0.03410
1199.56709	0.03414
1197.63853	0.03418
1195.70996	0.03429
1193.78140	0.03453
1191.85283	0.03480
1189.92427	0.03501
1187.99570	0.03515
1186.06714	0.03527
1184.13857	0.03546
1182.21001	0.03575
1180.28145	0.03617
1178.35288	0.03664
1176.42432	0.03694
1174.49575	0.03688
1172.56719	0.03658
1170.63862	0.03631
1168.71006	0.03616
1166.78149	0.03605
1164.85293	0.03589
1162.92437	0.03573
1160.99580	0.03570
1159.06724	0.03577
1157.13867	0.03579
1155.21011	0.03575
1153.28154	0.03566
1151.35298	0.03548
1149.42441	0.03528
1147.49585	0.03514
1145.56729	0.03510
1143.63872	0.03522
1141.71016	0.03541
1139.78159	0.03552
1137.85303	0.03567
1135.92446	0.03602
1133.99590	0.03652
1132.06733	0.03700
1130.13877	0.03733
1128.21021	0.03750
1126.28164	0.03754
1124.35308	0.03754
1122.42451	0.03760
1120.49595	0.03778
1118.56738	0.03800
1116.63882	0.03812
1114.71025	0.03819
1112.78169	0.03831
1110.85312	0.03849
1108.92456	0.03873
1106.99600	0.03901
1105.06743	0.03925
1103.13887	0.03936
1101.21030	0.03938
1099.28174	0.03945
1097.35317	0.03960
1095.42461	0.03981
1093.49604	0.04007
1091.56748	0.04036
1089.63892	0.04060
1087.71035	0.04088
1085.78179	0.04131
1083.85322	0.04171
1081.92466	0.04198
1079.99609	0.04216
1078.06753	0.04232
1076.13896	0.04244
1074.21040	0.04246
1072.28184	0.04238
1070.35327	0.04236
1068.42471	0.04248
1066.49614	0.04263
1064.56758	0.04259
1062.63901	0.04241
1060.71045	0.04233
1058.78188	0.04239
1056.85332	0.04236
1054.92476	0.04222
1052.99619	0.04207
1051.06763	0.04192
1049.13906	0.04160
1047.21050	0.04119
1045.28193	0.04086
1043.35337	0.04072
1041.42480	0.04063
1039.49624	0.04046
1037.56768	0.04019
1035.63911	0.03986
1033.71055	0.03943
1031.78198	0.03898
1029.85342	0.03867
1027.92485	0.03857
1025.99629	0.03862
1024.06772	0.03856
1022.13916	0.03827
1020.21060	0.03791
1018.28203	0.03757
1016.35347	0.03728
1014.42490	0.03703
1012.49634	0.03684
1010.56777	0.03667
1008.63921	0.03657
1006.71064	0.03661
1004.78208	0.03673
1002.85352	0.03700
1000.92495	0.03767
998.99639	0.03890
997.06782	0.04061
995.13926	0.04246
993.21069	0.04399
991.28213	0.04467
989.35356	0.04416
987.42500	0.04268
985.49644	0.04087
983.56787	0.03928
981.63931	0.03803
979.71074	0.03711
977.78218	0.03664
975.85361	0.03664
973.92505	0.03687
971.99648	0.03728
970.06792	0.03786
968.13936	0.03847
966.21079	0.03886
964.28223	0.03881
962.35366	0.03811
960.42510	0.03681
958.49653	0.03540
956.56797	0.03434
954.63940	0.03366
952.71084	0.03313
950.78228	0.03270
948.85371	0.03236
946.92515	0.03218
944.99658	0.03215
943.06802	0.03218
941.13945	0.03225
939.21089	0.03234
937.28232	0.03238
935.35376	0.03230
933.42520	0.03228
931.49663	0.03246
929.56807	0.03278
927.63950	0.03313
925.71094	0.03363
923.78237	0.03439
921.85381	0.03533
919.92524	0.03658
917.99668	0.03856
916.06812	0.04175
914.13955	0.04663
912.21099	0.05316
910.28242	0.05970
908.35386	0.06304
906.42529	0.06096
904.49673	0.05494
902.56816	0.04837
900.63960	0.04306
898.71104	0.03917
896.78247	0.03656
894.85391	0.03509
892.92534	0.03453
890.99678	0.03457
889.06821	0.03469
887.13965	0.03449
885.21108	0.03390
883.28252	0.03308
881.35396	0.03218
879.42539	0.03133
877.49683	0.03073
875.56826	0.03038
873.63970	0.03008
871.71113	0.02960
869.78257	0.02886
867.85400	0.02802
865.92544	0.02737
863.99687	0.02705
862.06831	0.02689
860.13975	0.02664
858.21118	0.02630
856.28262	0.02595
854.35405	0.02556
852.42549	0.02517
850.49692	0.02476
848.56836	0.02439
846.63979	0.02413
844.71123	0.02384
842.78267	0.02336
840.85410	0.02281
838.92554	0.02225
836.99697	0.02157
835.06841	0.02084
833.13984	0.02029
831.21128	0.01988
829.28271	0.01943
827.35415	0.01876
825.42559	0.01783
823.49702	0.01669
821.56846	0.01545
819.63989	0.01412
817.71133	0.01246
815.78276	0.01024
813.85420	0.00748
811.92563	0.00414
809.99707	0.00020
808.06851	-0.00428
806.13994	-0.00910
804.21138	-0.01390
802.28281	-0.01846
800.35425	-0.02288
798.42568	-0.02714
796.49712	-0.03089
794.56855	-0.03389
792.63999	-0.03630
790.71143	-0.03822
788.78286	-0.03936
786.85430	-0.03950
784.92573	-0.03879
782.99717	-0.03744
781.06860	-0.03552
779.14004	-0.03314
777.21147	-0.03046
775.28291	-0.02779
773.35435	-0.02540
771.42578	-0.02323
769.49722	-0.02107
767.56865	-0.01879
765.64009	-0.01656
763.71152	-0.01457
761.78296	-0.01254
759.85439	-0.01015
757.92583	-0.00733
755.99727	-0.00431
754.06870	-0.00154
752.14014	0.00075
750.21157	0.00284
748.28301	0.00496
746.35444	0.00701
744.42588	0.00903
742.49731	0.01139
740.56875	0.01473
738.64019	0.02018
736.71162	0.03117
734.78306	0.05407
732.85449	0.08720
730.92593	0.10986
728.99736	0.10660
727.06880	0.09332
725.14023	0.09174
723.21167	0.11208
721.28311	0.15681
719.35454	0.21154
717.42598	0.24177
715.49741	0.22410
713.56885	0.17433
711.64028	0.12532
709.71172	0.09280
707.78315	0.07424
705.85459	0.06321
703.92603	0.05583
701.99746	0.05036
700.06890	0.04622
698.14033	0.04330
696.21177	0.04146
694.28320	0.04033
692.35464	0.03936
690.42607	0.03847
688.49751	0.03789
686.56895	0.03729
684.64038	0.03641
682.71182	0.03527
680.78325	0.03455
678.85469	0.03489
676.92612	0.03549
674.99756	0.03515
673.06899	0.03411
671.14043	0.03416
669.21187	0.03552
667.28330	0.03350
665.35474	0.03397
663.42617	0.03421
661.49761	0.03382
659.56904	0.03365
657.64048	0.03392
655.71191	0.03388
653.78335	0.03336
651.85479	0.03320
649.92622	0.03352
647.99766	0.03336
646.06909	0.03257
644.14053	0.03200
642.21196	0.03155
640.28340	0.03034
638.35483	0.02782
636.42627	0.02348
634.49771	0.01689
632.56914	0.00948
630.64058	0.00504
628.71201	0.00616
626.78345	0.01174
624.85488	0.01841
622.92632	0.02394
620.99775	0.02771
619.06919	0.03010
617.14062	0.03181
615.21206	0.03305
613.28350	0.03370
611.35493	0.03395
609.42637	0.03421
607.49780	0.03465
605.56924	0.03443
603.64067	0.03257
601.71211	0.02998
599.78354	0.02843
