3997.91411	0.05100
3995.98555	0.05077
3994.05698	0.05047
3992.12842	0.05026
3990.19985	0.05016
3988.27129	0.05013
3986.34272	0.05013
3984.41416	0.05017
3982.48560	0.05029
3980.55703	0.05044
3978.62847	0.05051
3976.69990	0.05056
3974.77134	0.05062
3972.84277	0.05058
3970.91421	0.05055
3968.98564	0.05056
3967.05708	0.05049
3965.12852	0.05026
3963.19995	0.05007
3961.27139	0.05012
3959.34282	0.05016
3957.41426	0.05002
3955.48569	0.04991
3953.55713	0.04997
3951.62856	0.05017
3949.70000	0.05036
3947.77144	0.05040
3945.84287	0.05037
3943.91431	0.05045
3941.98574	0.05056
3940.05718	0.05049
3938.12861	0.05026
3936.20005	0.05019
3934.27148	0.05040
3932.34292	0.05056
3930.41436	0.05037
3928.48579	0.05009
3926.55723	0.05008
3924.62866	0.05026
3922.70010	0.05045
3920.77153	0.05070
3918.84297	0.05086
3916.91440	0.05072
3914.98584	0.05034
3913.05728	0.04998
3911.12871	0.04972
3909.20015	0.04970
3907.27158	0.05015
3905.34302	0.05102
3903.41445	0.05174
3901.48589	0.05184
3899.55732	0.05133
3897.62876	0.05054
3895.70020	0.04997
3893.77163	0.04994
3891.84307	0.05029
3889.91450	0.05048
3887.98594	0.05071
3886.05737	0.05122
3884.12881	0.05141
3882.20024	0.05118
3880.27168	0.05069
3878.34312	0.04997
3876.41455	0.04969
3874.48599	0.05003
3872.55742	0.05055
3870.62886	0.05115
3868.70029	0.05134
3866.77173	0.05099
3864.84316	0.05074
3862.91460	0.05047
3860.98604	0.05002
3859.05747	0.04989
3857.12891	0.05029
3855.20034	0.05132
3853.27178	0.05222
3851.34321	0.05139
3849.41465	0.05011
3847.48608	0.04957
3845.55752	0.04973
3843.62896	0.05037
3841.70039	0.05120
3839.77183	0.05178
3837.84326	0.05193
3835.91470	0.05150
3833.98613	0.05086
3832.05757	0.05038
3830.12900	0.04999
3828.20044	0.04970
3826.27187	0.04948
3824.34331	0.04941
3822.41475	0.04994
3820.48618	0.05047
3818.55762	0.05013
3816.62905	0.04978
3814.70049	0.04955
3812.77192	0.04913
3810.84336	0.04891
3808.91479	0.04920
3806.98623	0.04970
3805.05767	0.04985
3803.12910	0.05008
3801.20054	0.05041
3799.27197	0.05015
3797.34341	0.04970
3795.41484	0.04917
3793.48628	0.04855
3791.55771	0.04835
3789.62915	0.04844
3787.70059	0.04846
3785.77202	0.04848
3783.84346	0.04861
3781.91489	0.04883
3779.98633	0.04901
3778.05776	0.04888
3776.12920	0.04859
3774.20063	0.04855
3772.27207	0.04877
3770.34351	0.04899
3768.41494	0.04887
3766.48638	0.04862
3764.55781	0.04844
3762.62925	0.04837
3760.70068	0.04863
3758.77212	0.04896
3756.84355	0.04898
3754.91499	0.04912
3752.98643	0.04980
3751.05786	0.05067
3749.12930	0.05079
3747.20073	0.05060
3745.27217	0.05068
3743.34360	0.05014
3741.41504	0.04900
3739.48647	0.04861
3737.55791	0.04947
3735.62935	0.05073
3733.70078	0.05075
3731.77222	0.04974
3729.84365	0.04890
3727.91509	0.04873
3725.98652	0.04904
3724.05796	0.04915
3722.12939	0.04885
3720.20083	0.04846
3718.27227	0.04812
3716.34370	0.04803
3714.41514	0.04849
3712.48657	0.04949
3710.55801	0.05025
3708.62944	0.05027
3706.70088	0.05002
3704.77231	0.05001
3702.84375	0.05063
3700.91519	0.05148
3698.98662	0.05185
3697.05806	0.05184
3695.12949	0.05179
3693.20093	0.05185
3691.27236	0.05218
3689.34380	0.05248
3687.41523	0.05192
3685.48667	0.05084
3683.55811	0.05005
3681.62954	0.04976
3679.70098	0.04991
3677.77241	0.05050
3675.84385	0.05147
3673.91528	0.05197
3671.98672	0.05202
3670.05815	0.05206
3668.12959	0.05157
3666.20103	0.05083
3664.27246	0.05053
3662.34390	0.05071
3660.41533	0.05117
3658.48677	0.05181
3656.55820	0.05250
3654.62964	0.05295
3652.70107	0.05375
3650.77251	0.05559
3648.84395	0.05686
3646.91538	0.05574
3644.98682	0.05418
3643.05825	0.05342
3641.12969	0.05334
3639.20112	0.05344
3637.27256	0.05356
3635.34399	0.05397
3633.41543	0.05462
3631.48687	0.05544
3629.55830	0.05669
3627.62974	0.05735
3625.70117	0.05687
3623.77261	0.05650
3621.84404	0.05694
3619.91548	0.05803
3617.98691	0.05865
3616.05835	0.05837
3614.12979	0.05812
3612.20122	0.05818
3610.27266	0.05840
3608.34409	0.05878
3606.41553	0.05877
3604.48696	0.05843
3602.55840	0.05839
3600.62983	0.05867
3598.70127	0.05894
3596.77271	0.05927
3594.84414	0.05978
3592.91558	0.06005
3590.98701	0.06004
3589.05845	0.06048
3587.12988	0.06132
3585.20132	0.06152
3583.27275	0.06134
3581.34419	0.06140
3579.41562	0.06159
3577.48706	0.06158
3575.55850	0.06150
3573.62993	0.06158
3571.70137	0.06197
3569.77280	0.06269
3567.84424	0.06355
3565.91567	0.06408
3563.98711	0.06423
3562.05854	0.06425
3560.12998	0.06420
3558.20142	0.06426
3556.27285	0.06443
3554.34429	0.06461
3552.41572	0.06488
3550.48716	0.06531
3548.55859	0.06581
3546.63003	0.06633
3544.70146	0.06682
3542.77290	0.06723
3540.84434	0.06758
3538.91577	0.06798
3536.98721	0.06846
3535.05864	0.06887
3533.13008	0.06908
3531.20151	0.06910
3529.27295	0.06913
3527.34438	0.06932
3525.41582	0.06977
3523.48726	0.07028
3521.55869	0.07061
3519.63013	0.07088
3517.70156	0.07128
3515.77300	0.07156
3513.84443	0.07153
3511.91587	0.07157
3509.98730	0.07206
3508.05874	0.07250
3506.13018	0.07257
3504.20161	0.07276
3502.27305	0.07324
3500.34448	0.07357
3498.41592	0.07374
3496.48735	0.07403
3494.55879	0.07451
3492.63022	0.07489
3490.70166	0.07507
3488.77310	0.07518
3486.84453	0.07528
3484.91597	0.07540
3482.98740	0.07541
3481.05884	0.07525
3479.13027	0.07526
3477.20171	0.07572
3475.27314	0.07652
3473.34458	0.07723
3471.41602	0.07755
3469.48745	0.07765
3467.55889	0.07766
3465.63032	0.07758
3463.70176	0.07766
3461.77319	0.07801
3459.84463	0.07843
3457.91606	0.07873
3455.98750	0.07876
3454.05894	0.07855
3452.13037	0.07843
3450.20181	0.07876
3448.27324	0.07945
3446.34468	0.08000
3444.41611	0.08028
3442.48755	0.08052
3440.55898	0.08065
3438.63042	0.08067
3436.70186	0.08075
3434.77329	0.08078
3432.84473	0.08081
3430.91616	0.08102
3428.98760	0.08130
3427.05903	0.08159
3425.13047	0.08193
3423.20190	0.08211
3421.27334	0.08220
3419.34478	0.08243
3417.41621	0.08272
3415.48765	0.08291
3413.55908	0.08306
3411.63052	0.08328
3409.70195	0.08350
3407.77339	0.08362
3405.84482	0.08354
3403.91626	0.08329
3401.98770	0.08319
3400.05913	0.08344
3398.13057	0.08370
3396.20200	0.08365
3394.27344	0.08349
3392.34487	0.08362
3390.41631	0.08402
3388.48774	0.08428
3386.55918	0.08431
3384.63062	0.08424
3382.70205	0.08421
3380.77349	0.08437
3378.84492	0.08454
3376.91636	0.08452
3374.98779	0.08439
3373.05923	0.08443
3371.13066	0.08472
3369.20210	0.08487
3367.27354	0.08474
3365.34497	0.08470
3363.41641	0.08480
3361.48784	0.08491
3359.55928	0.08513
3357.63071	0.08523
3355.70215	0.08502
3353.77358	0.08484
3351.84502	0.08481
3349.91646	0.08486
3347.98789	0.08503
3346.05933	0.08522
3344.13076	0.08512
3342.20220	0.08468
3340.27363	0.08442
3338.34507	0.08452
3336.41650	0.08481
3334.48794	0.08512
3332.55937	0.08518
3330.63081	0.08495
3328.70225	0.08477
3326.77368	0.08475
3324.84512	0.08466
3322.91655	0.08457
3320.98799	0.08461
3319.05942	0.08456
3317.13086	0.08441
3315.20229	0.08449
3313.27373	0.08472
3311.34517	0.08473
3309.41660	0.08449
3307.48804	0.08425
3305.55947	0.08401
3303.63091	0.08378
3301.70234	0.08381
3299.77378	0.08407
3297.84521	0.08422
3295.91665	0.08408
3293.98809	0.08371
3292.05952	0.08344
3290.13096	0.08357
3288.20239	0.08377
3286.27383	0.08369
3284.34526	0.08352
3282.41670	0.08341
3280.48813	0.08324
3278.55957	0.08308
3276.63101	0.08289
3274.70244	0.08260
3272.77388	0.08257
3270.84531	0.08282
3268.91675	0.08289
3266.98818	0.08279
3265.05962	0.08276
3263.13105	0.08269
3261.20249	0.08254
3259.27393	0.08252
3257.34536	0.08252
3255.41680	0.08223
3253.48823	0.08188
3251.55967	0.08194
3249.63110	0.08218
3247.70254	0.08209
3245.77397	0.08177
3243.84541	0.08142
3241.91685	0.08112
3239.98828	0.08110
3238.05972	0.08118
3236.13115	0.08102
3234.20259	0.08081
3232.27402	0.08065
3230.34546	0.08050
3228.41689	0.08044
3226.48833	0.08043
3224.55977	0.08030
3222.63120	0.08009
3220.70264	0.07999
3218.77407	0.07983
3216.84551	0.07948
3214.91694	0.07931
3212.98838	0.07940
3211.05981	0.07936
3209.13125	0.07925
3207.20269	0.07915
3205.27412	0.07902
3203.34556	0.07902
3201.41699	0.07903
3199.48843	0.07883
3197.55986	0.07844
3195.63130	0.07798
3193.70273	0.07771
3191.77417	0.07766
3189.84561	0.07751
3187.91704	0.07729
3185.98848	0.07730
3184.05991	0.07733
3182.13135	0.07697
3180.20278	0.07647
3178.27422	0.07630
3176.34565	0.07626
3174.41709	0.07603
3172.48853	0.07565
3170.55996	0.07533
3168.63140	0.07523
3166.70283	0.07529
3164.77427	0.07526
3162.84570	0.07495
3160.91714	0.07444
3158.98857	0.07403
3157.06001	0.07387
3155.13145	0.07384
3153.20288	0.07364
3151.27432	0.07319
3149.34575	0.07281
3147.41719	0.07273
3145.48862	0.07275
3143.56006	0.07253
3141.63149	0.07196
3139.70293	0.07143
3137.77437	0.07129
3135.84580	0.07125
3133.91724	0.07104
3131.98867	0.07073
3130.06011	0.07043
3128.13154	0.07017
3126.20298	0.06991
3124.27441	0.06977
3122.34585	0.06977
3120.41729	0.06970
3118.48872	0.06958
3116.56016	0.06962
3114.63159	0.06980
3112.70303	0.07004
3110.77446	0.07033
3108.84590	0.07073
3106.91733	0.07126
3104.98877	0.07165
3103.06021	0.07169
3101.13164	0.07148
3099.20308	0.07114
3097.27451	0.07098
3095.34595	0.07117
3093.41738	0.07166
3091.48882	0.07259
3089.56025	0.07408
3087.63169	0.07596
3085.70312	0.07779
3083.77456	0.07902
3081.84600	0.07931
3079.91743	0.07880
3077.98887	0.07789
3076.06030	0.07690
3074.13174	0.07608
3072.20317	0.07586
3070.27461	0.07648
3068.34604	0.07779
3066.41748	0.07952
3064.48892	0.08134
3062.56035	0.08293
3060.63179	0.08410
3058.70322	0.08440
3056.77466	0.08343
3054.84609	0.08142
3052.91753	0.07911
3050.98896	0.07721
3049.06040	0.07577
3047.13184	0.07455
3045.20327	0.07379
3043.27471	0.07380
3041.34614	0.07443
3039.41758	0.07544
3037.48901	0.07700
3035.56045	0.07952
3033.63188	0.08325
3031.70332	0.08805
3029.77476	0.09319
3027.84619	0.09777
3025.91763	0.10062
3023.98906	0.10046
3022.06050	0.09718
3020.13193	0.09203
3018.20337	0.08642
3016.27480	0.08146
3014.34624	0.07784
3012.41768	0.07566
3010.48911	0.07452
3008.56055	0.07396
3006.63198	0.07376
3004.70342	0.07386
3002.77485	0.07405
3000.84629	0.07394
2998.91772	0.07335
2996.98916	0.07235
2995.06060	0.07117
2993.13203	0.07021
2991.20347	0.06977
2989.27490	0.06976
2987.34634	0.06986
2985.41777	0.07009
2983.48921	0.07065
2981.56064	0.07150
2979.63208	0.07253
2977.70352	0.07377
2975.77495	0.07527
2973.84639	0.07705
2971.91782	0.07907
2969.98926	0.08136
2968.06069	0.08398
2966.13213	0.08688
2964.20356	0.08994
2962.27500	0.09303
2960.34644	0.09598
2958.41787	0.09870
2956.48931	0.10106
2954.56074	0.10292
2952.63218	0.10430
2950.70361	0.10553
2948.77505	0.10708
2946.84648	0.10940
2944.91792	0.11270
2942.98936	0.11694
2941.06079	0.12222
2939.13223	0.12870
2937.20366	0.13641
2935.27510	0.14519
2933.34653	0.15492
2931.41797	0.16576
2929.48940	0.17799
2927.56084	0.19147
2925.63228	0.20592
2923.70371	0.22117
2921.77515	0.23617
2919.84658	0.24819
2917.91802	0.25361
2915.98945	0.24999
2914.06089	0.23850
2912.13232	0.22369
2910.20376	0.20970
2908.27520	0.19819
2906.34663	0.18905
2904.41807	0.18162
2902.48950	0.17536
2900.56094	0.16976
2898.63237	0.16436
2896.70381	0.15908
2894.77524	0.15414
2892.84668	0.14962
2890.91812	0.14546
2888.98955	0.14156
2887.06099	0.13788
2885.13242	0.13439
2883.20386	0.13112
2881.27529	0.12821
2879.34673	0.12582
2877.41816	0.12402
2875.48960	0.12283
2873.56104	0.12222
2871.63247	0.12191
2869.70391	0.12176
2867.77534	0.12193
2865.84678	0.12271
2863.91821	0.12441
2861.98965	0.12741
2860.06108	0.13218
2858.13252	0.13940
2856.20396	0.15011
2854.27539	0.16520
2852.34683	0.18270
2850.41826	0.19506
2848.48970	0.19397
2846.56113	0.18055
2844.63257	0.16352
2842.70400	0.14874
2840.77544	0.13695
2838.84687	0.12743
2836.91831	0.11972
2834.98975	0.11352
2833.06118	0.10857
2831.13262	0.10452
2829.20405	0.10108
2827.27549	0.09822
2825.34692	0.09594
2823.41836	0.09408
2821.48979	0.09257
2819.56123	0.09130
2817.63267	0.09006
2815.70410	0.08898
2813.77554	0.08821
2811.84697	0.08754
2809.91841	0.08670
2807.98984	0.08573
2806.06128	0.08486
2804.13271	0.08419
2802.20415	0.08360
2800.27559	0.08295
2798.34702	0.08222
2796.41846	0.08147
2794.48989	0.08083
2792.56133	0.08042
2790.63276	0.08009
2788.70420	0.07961
2786.77563	0.07914
2784.84707	0.07882
2782.91851	0.07848
2780.98994	0.07808
2779.06138	0.07777
2777.13281	0.07749
2775.20425	0.07708
2773.27568	0.07659
2771.34712	0.07615
2769.41855	0.07581
2767.48999	0.07554
2765.56143	0.07522
2763.63286	0.07488
2761.70430	0.07463
2759.77573	0.07448
2757.84717	0.07438
2755.91860	0.07425
2753.99004	0.07407
2752.06147	0.07388
2750.13291	0.07363
2748.20435	0.07333
2746.27578	0.07319
2744.34722	0.07312
2742.41865	0.07294
2740.49009	0.07274
2738.56152	0.07266
2736.63296	0.07263
2734.70439	0.07255
2732.77583	0.07243
2730.84727	0.07230
2728.91870	0.07212
2726.99014	0.07189
2725.06157	0.07172
2723.13301	0.07162
2721.20444	0.07150
2719.27588	0.07135
2717.34731	0.07116
2715.41875	0.07096
2713.49019	0.07074
2711.56162	0.07056
2709.63306	0.07045
2707.70449	0.07032
2705.77593	0.07013
2703.84736	0.06994
2701.91880	0.06982
2699.99023	0.06978
2698.06167	0.06970
2696.13311	0.06955
2694.20454	0.06936
2692.27598	0.06915
2690.34741	0.06903
2688.41885	0.06899
2686.49028	0.06892
2684.56172	0.06881
2682.63315	0.06876
2680.70459	0.06876
2678.77603	0.06875
2676.84746	0.06869
2674.91890	0.06856
2672.99033	0.06840
2671.06177	0.06830
2669.13320	0.06830
2667.20464	0.06838
2665.27607	0.06855
2663.34751	0.06865
2661.41895	0.06859
2659.49038	0.06844
2657.56182	0.06823
2655.63325	0.06801
2653.70469	0.06788
2651.77612	0.06790
2649.84756	0.06792
2647.91899	0.06775
2645.99043	0.06750
2644.06187	0.06742
2642.13330	0.06743
2640.20474	0.06734
2638.27617	0.06723
2636.34761	0.06715
2634.41904	0.06702
2632.49048	0.06685
2630.56191	0.06672
2628.63335	0.06659
2626.70479	0.06638
2624.77622	0.06604
2622.84766	0.06567
2620.91909	0.06545
2618.99053	0.06532
2617.06196	0.06514
2615.13340	0.06496
2613.20483	0.06493
2611.27627	0.06500
2609.34771	0.06497
2607.41914	0.06477
2605.49058	0.06451
2603.56201	0.06434
2601.63345	0.06422
2599.70488	0.06405
2597.77632	0.06392
2595.84775	0.06387
2593.91919	0.06370
2591.99062	0.06332
2590.06206	0.06291
2588.13350	0.06271
2586.20493	0.06275
2584.27637	0.06285
2582.34780	0.06283
2580.41924	0.06265
2578.49067	0.06234
2576.56211	0.06212
2574.63354	0.06203
2572.70498	0.06192
2570.77642	0.06171
2568.84785	0.06147
2566.91929	0.06133
2564.99072	0.06133
2563.06216	0.06128
2561.13359	0.06119
2559.20503	0.06115
2557.27646	0.06108
2555.34790	0.06093
2553.41934	0.06084
2551.49077	0.06086
2549.56221	0.06091
2547.63364	0.06089
2545.70508	0.06070
2543.77651	0.06052
2541.84795	0.06047
2539.91938	0.06035
2537.99082	0.06018
2536.06226	0.06027
2534.13369	0.06050
2532.20513	0.06058
2530.27656	0.06047
2528.34800	0.06025
2526.41943	0.06001
2524.49087	0.05986
2522.56230	0.05977
2520.63374	0.05969
2518.70518	0.05956
2516.77661	0.05935
2514.84805	0.05921
2512.91948	0.05923
2510.99092	0.05929
2509.06235	0.05929
2507.13379	0.05925
2505.20522	0.05918
2503.27666	0.05907
2501.34810	0.05898
2499.41953	0.05890
2497.49097	0.05881
2495.56240	0.05878
2493.63384	0.05891
2491.70527	0.05897
2489.77671	0.05877
2487.84814	0.05857
2485.91958	0.05859
2483.99102	0.05861
2482.06245	0.05845
2480.13389	0.05830
2478.20532	0.05834
2476.27676	0.05837
2474.34819	0.05819
2472.41963	0.05796
2470.49106	0.05786
2468.56250	0.05784
2466.63394	0.05775
2464.70537	0.05768
2462.77681	0.05773
2460.84824	0.05771
2458.91968	0.05757
2456.99111	0.05749
2455.06255	0.05752
2453.13398	0.05758
2451.20542	0.05760
2449.27686	0.05750
2447.34829	0.05730
2445.41973	0.05714
2443.49116	0.05711
2441.56260	0.05717
2439.63403	0.05716
2437.70547	0.05696
2435.77690	0.05665
2433.84834	0.05649
2431.91978	0.05654
2429.99121	0.05663
2428.06265	0.05657
2426.13408	0.05644
2424.20552	0.05649
2422.27695	0.05656
2420.34839	0.05634
2418.41982	0.05604
2416.49126	0.05600
2414.56270	0.05613
2412.63413	0.05618
2410.70557	0.05616
2408.77700	0.05612
2406.84844	0.05603
2404.91987	0.05598
2402.99131	0.05599
2401.06274	0.05592
2399.13418	0.05520
2397.20562	0.05493
2395.27705	0.05504
2393.34849	0.05530
2391.41992	0.05566
2389.49136	0.05609
2387.56279	0.05657
2385.63423	0.05710
2383.70566	0.05760
2381.77710	0.05789
2379.84854	0.05783
2377.91997	0.05749
2375.99141	0.05713
2374.06284	0.05705
2372.13428	0.05728
2370.20571	0.05745
2368.27715	0.05723
2366.34858	0.05710
2364.42002	0.05811
2362.49146	0.05848
2360.56289	0.05943
2358.63433	0.06081
2356.70576	0.05923
2354.77720	0.06143
2352.84863	0.06278
2350.92007	0.06130
2348.99150	0.06004
2347.06294	0.05852
2345.13437	0.05715
2343.20581	0.05931
2341.27725	0.06460
2339.34868	0.06633
2337.42012	0.06374
2335.49155	0.05906
2333.56299	0.05561
2331.63442	0.05438
2329.70586	0.05464
2327.77729	0.05615
2325.84873	0.05701
2323.92017	0.05688
2321.99160	0.05640
2320.06304	0.05590
2318.13447	0.05571
2316.20591	0.05593
2314.27734	0.05623
2312.34878	0.05672
2310.42021	0.05747
2308.49165	0.05788
2306.56309	0.05817
2304.63452	0.05813
2302.70596	0.05778
2300.77739	0.05737
2298.84883	0.05690
2296.92026	0.05659
2294.99170	0.05655
2293.06313	0.05656
2291.13457	0.05638
2289.20601	0.05617
2287.27744	0.05589
2285.34888	0.05545
2283.42031	0.05509
2281.49175	0.05486
2279.56318	0.05467
2277.63462	0.05441
2275.70605	0.05423
2273.77749	0.05423
2271.84893	0.05427
2269.92036	0.05425
2267.99180	0.05418
2266.06323	0.05398
2264.13467	0.05365
2262.20610	0.05355
2260.27754	0.05384
2258.34897	0.05415
2256.42041	0.05410
2254.49185	0.05386
2252.56328	0.05377
2250.63472	0.05378
2248.70615	0.05335
2246.77759	0.05300
2244.84902	0.05258
2242.92046	0.05250
2240.99189	0.05272
2239.06333	0.05300
2237.13477	0.05321
2235.20620	0.05329
2233.27764	0.05327
2231.34907	0.05307
2229.42051	0.05282
2227.49194	0.05283
2225.56338	0.05305
2223.63481	0.05315
2221.70625	0.05303
2219.77769	0.05291
2217.84912	0.05289
2215.92056	0.05286
2213.99199	0.05275
2212.06343	0.05254
2210.13486	0.05238
2208.20630	0.05235
2206.27773	0.05216
2204.34917	0.05192
2202.42061	0.05181
2200.49204	0.05138
2198.56348	0.05098
2196.63491	0.05128
2194.70635	0.05184
2192.77778	0.05210
2190.84922	0.05214
2188.92065	0.05218
2186.99209	0.05224
2185.06353	0.05214
2183.13496	0.05182
2181.20640	0.05175
2179.27783	0.05198
2177.34927	0.05172
2175.42070	0.05080
2173.49214	0.05008
2171.56357	0.05025
2169.63501	0.05108
2167.70645	0.05177
2165.77788	0.05192
2163.84932	0.05186
2161.92075	0.05100
2159.99219	0.04836
2158.06362	0.04590
2156.13506	0.04576
2154.20649	0.04663
2152.27793	0.04744
2150.34937	0.04821
2148.42080	0.04857
2146.49224	0.04861
2144.56367	0.04871
2142.63511	0.04868
2140.70654	0.04842
2138.77798	0.04822
2136.84941	0.04801
2134.92085	0.04758
2132.99229	0.04736
2131.06372	0.04779
2129.13516	0.04851
2127.20659	0.04890
2125.27803	0.04903
2123.34946	0.04933
2121.42090	0.04971
2119.49233	0.05002
2117.56377	0.05044
2115.63521	0.05081
2113.70664	0.05077
2111.77808	0.05049
2109.84951	0.05028
2107.92095	0.05022
2105.99238	0.05025
2104.06382	0.05032
2102.13525	0.05038
2100.20669	0.05022
2098.27812	0.04973
2096.34956	0.04931
2094.42100	0.04924
2092.49243	0.04945
2090.56387	0.04970
2088.63530	0.04985
2086.70674	0.04990
2084.77817	0.05003
2082.84961	0.05038
2080.92104	0.05064
2078.99248	0.05054
2077.06392	0.05021
2075.13535	0.04988
2073.20679	0.04974
2071.27822	0.04992
2069.34966	0.05006
2067.42109	0.04984
2065.49253	0.04951
2063.56396	0.04943
2061.63540	0.04955
2059.70684	0.04976
2057.77827	0.04987
2055.84971	0.04976
2053.92114	0.04990
2051.99258	0.05057
2050.06401	0.05101
2048.13545	0.05056
2046.20688	0.04964
2044.27832	0.04906
2042.34976	0.04916
2040.42119	0.04965
2038.49263	0.05013
2036.56406	0.05041
2034.63550	0.05032
2032.70693	0.04990
2030.77837	0.04924
2028.84980	0.04841
2026.92124	0.04793
2024.99268	0.04782
2023.06411	0.04758
2021.13555	0.04732
2019.20698	0.04746
2017.27842	0.04801
2015.34985	0.04839
2013.42129	0.04806
2011.49272	0.04729
2009.56416	0.04663
2007.63560	0.04623
2005.70703	0.04631
2003.77847	0.04675
2001.84990	0.04703
1999.92134	0.04714
1997.99277	0.04719
1996.06421	0.04709
1994.13564	0.04721
1992.20708	0.04793
1990.27852	0.04887
1988.34995	0.04931
1986.42139	0.04921
1984.49282	0.04906
1982.56426	0.04917
1980.63569	0.04912
1978.70713	0.04823
1976.77856	0.04701
1974.85000	0.04671
1972.92144	0.04710
1970.99287	0.04727
1969.06431	0.04722
1967.13574	0.04756
1965.20718	0.04828
1963.27861	0.04862
1961.35005	0.04856
1959.42148	0.04875
1957.49292	0.04922
1955.56436	0.04964
1953.63579	0.05009
1951.70723	0.05065
1949.77866	0.05124
1947.85010	0.05178
1945.92153	0.05242
1943.99297	0.05314
1942.06440	0.05342
1940.13584	0.05310
1938.20728	0.05261
1936.27871	0.05190
1934.35015	0.05105
1932.42158	0.05048
1930.49302	0.05018
1928.56445	0.04983
1926.63589	0.04939
1924.70732	0.04912
1922.77876	0.04914
1920.85020	0.04929
1918.92163	0.04924
1916.99307	0.04886
1915.06450	0.04842
1913.13594	0.04813
1911.20737	0.04793
1909.27881	0.04790
1907.35024	0.04801
1905.42168	0.04808
1903.49312	0.04814
1901.56455	0.04838
1899.63599	0.04874
1897.70742	0.04899
1895.77886	0.04918
1893.85029	0.04944
1891.92173	0.04979
1889.99316	0.05004
1888.06460	0.05008
1886.13604	0.05021
1884.20747	0.05053
1882.27891	0.05085
1880.35034	0.05108
1878.42178	0.05125
1876.49321	0.05137
1874.56465	0.05154
1872.63608	0.05183
1870.70752	0.05225
1868.77896	0.05250
1866.85039	0.05220
1864.92183	0.05164
1862.99326	0.05116
1861.06470	0.05071
1859.13613	0.05022
1857.20757	0.04972
1855.27900	0.04922
1853.35044	0.04881
1851.42187	0.04852
1849.49331	0.04833
1847.56475	0.04834
1845.63618	0.04861
1843.70762	0.04863
1841.77905	0.04819
1839.85049	0.04783
1837.92192	0.04777
1835.99336	0.04781
1834.06479	0.04801
1832.13623	0.04858
1830.20767	0.04919
1828.27910	0.04928
1826.35054	0.04921
1824.42197	0.04929
1822.49341	0.04927
1820.56484	0.04926
1818.63628	0.04945
1816.70771	0.04973
1814.77915	0.05010
1812.85059	0.05075
1810.92202	0.05158
1808.99346	0.05219
1807.06489	0.05254
1805.13633	0.05300
1803.20776	0.05375
1801.27920	0.05446
1799.35063	0.05460
1797.42207	0.05436
1795.49351	0.05450
1793.56494	0.05518
1791.63638	0.05559
1789.70781	0.05520
1787.77925	0.05493
1785.85068	0.05534
1783.92212	0.05611
1781.99355	0.05686
1780.06499	0.05756
1778.13643	0.05830
1776.20786	0.05929
1774.27930	0.06069
1772.35073	0.06212
1770.42217	0.06282
1768.49360	0.06296
1766.56504	0.06313
1764.63647	0.06371
1762.70791	0.06486
1760.77935	0.06603
1758.85078	0.06686
1756.92222	0.06773
1754.99365	0.06866
1753.06509	0.06998
1751.13652	0.07221
1749.20796	0.07452
1747.27939	0.07587
1745.35083	0.07682
1743.42227	0.07797
1741.49370	0.07931
1739.56514	0.08046
1737.63657	0.08133
1735.70801	0.08264
1733.77944	0.08444
1731.85088	0.08516
1729.92231	0.08524
1727.99375	0.08575
1726.06519	0.08696
1724.13662	0.08867
1722.20806	0.09030
1720.27949	0.09201
1718.35093	0.09444
1716.42236	0.09665
1714.49380	0.09729
1712.56523	0.09740
1710.63667	0.09786
1708.70811	0.09893
1706.77954	0.10055
1704.85098	0.10193
1702.92241	0.10277
1700.99385	0.10399
1699.06528	0.10521
1697.13672	0.10537
1695.20815	0.10482
1693.27959	0.10409
1691.35103	0.10385
1689.42246	0.10426
1687.49390	0.10513
1685.56533	0.10666
1683.63677	0.10788
1681.70820	0.10724
1679.77964	0.10645
1677.85107	0.10662
1675.92251	0.10771
1673.99395	0.10886
1672.06538	0.10963
1670.13682	0.11033
1668.20825	0.11045
1666.27969	0.11020
1664.35112	0.11041
1662.42256	0.11080
1660.49399	0.11073
1658.56543	0.11065
1656.63687	0.11116
1654.70830	0.11258
1652.77974	0.11377
1650.85117	0.11316
1648.92261	0.11277
1646.99404	0.11275
1645.06548	0.11182
1643.13691	0.11069
1641.20835	0.11030
1639.27979	0.11071
1637.35122	0.11178
1635.42266	0.11253
1633.49409	0.11193
1631.56553	0.11129
1629.63696	0.11140
1627.70840	0.11190
1625.77983	0.11252
1623.85127	0.11311
1621.92271	0.11319
1619.99414	0.11319
1618.06558	0.11397
1616.13701	0.11495
1614.20845	0.11534
1612.27988	0.11631
1610.35132	0.11901
1608.42275	0.12395
1606.49419	0.13109
1604.56562	0.13944
1602.63706	0.14654
1600.70850	0.14934
1598.77993	0.14720
1596.85137	0.14239
1594.92280	0.13757
1592.99424	0.13401
1591.06567	0.13179
1589.13711	0.13091
1587.20854	0.13164
1585.27998	0.13343
1583.35142	0.13447
1581.42285	0.13351
1579.49429	0.13146
1577.56572	0.12957
1575.63716	0.12754
1573.70859	0.12540
1571.78003	0.12404
1569.85146	0.12305
1567.92290	0.12169
1565.99434	0.12033
1564.06577	0.11938
1562.13721	0.11915
1560.20864	0.11995
1558.28008	0.12001
1556.35151	0.11780
1554.42295	0.11566
1552.49438	0.11414
1550.56582	0.11293
1548.63726	0.11173
1546.70869	0.11080
1544.78013	0.11047
1542.85156	0.11050
1540.92300	0.10971
1538.99443	0.10631
1537.06587	0.10288
1535.13730	0.10085
1533.20874	0.09891
1531.28018	0.09664
1529.35161	0.09498
1527.42305	0.09392
1525.49448	0.09298
1523.56592	0.09227
1521.63735	0.09152
1519.70879	0.09022
1517.78022	0.08881
1515.85166	0.08723
1513.92310	0.08569
1511.99453	0.08477
1510.06597	0.08470
1508.13740	0.08520
1506.20884	0.08450
1504.28027	0.08287
1502.35171	0.08318
1500.42314	0.08751
1498.49458	0.10000
1496.56602	0.12424
1494.63745	0.14971
1492.70889	0.16147
1490.78032	0.15464
1488.85176	0.13464
1486.92319	0.11688
1484.99463	0.10622
1483.06606	0.09988
1481.13750	0.09632
1479.20894	0.09569
1477.28037	0.09953
1475.35181	0.10887
1473.42324	0.11966
1471.49468	0.12327
1469.56611	0.12110
1467.63755	0.12027
1465.70898	0.12312
1463.78042	0.12786
1461.85186	0.13118
1459.92329	0.13448
1457.99473	0.14602
1456.06616	0.17070
1454.13760	0.19227
1452.20903	0.20263
1450.28047	0.20191
1448.35190	0.19278
1446.42334	0.18155
1444.49478	0.17204
1442.56621	0.16397
1440.63765	0.15732
1438.70908	0.15206
1436.78052	0.14656
1434.85195	0.14062
1432.92339	0.13582
1430.99482	0.13198
1429.06626	0.12856
1427.13770	0.12588
1425.20913	0.12422
1423.28057	0.12330
1421.35200	0.12297
1419.42344	0.12309
1417.49487	0.12287
1415.56631	0.12216
1413.63774	0.12168
1411.70918	0.12160
1409.78062	0.12170
1407.85205	0.12191
1405.92349	0.12218
1403.99492	0.12222
1402.06636	0.12207
1400.13779	0.12211
1398.20923	0.12231
1396.28066	0.12251
1394.35210	0.12263
1392.42354	0.12265
1390.49497	0.12318
1388.56641	0.12478
1386.63784	0.12704
1384.70928	0.12922
1382.78071	0.13163
1380.85215	0.13458
1378.92358	0.13759
1376.99502	0.13994
1375.06646	0.14107
1373.13789	0.14052
1371.20933	0.13891
1369.28076	0.13727
1367.35220	0.13589
1365.42363	0.13486
1363.49507	0.13392
1361.56650	0.13246
1359.63794	0.13058
1357.70937	0.12891
1355.78081	0.12764
1353.85225	0.12660
1351.92368	0.12560
1349.99512	0.12454
1348.06655	0.12344
1346.13799	0.12242
1344.20942	0.12151
1342.28086	0.12077
1340.35229	0.12016
1338.42373	0.11947
1336.49517	0.11882
1334.56660	0.11858
1332.63804	0.11874
1330.70947	0.11904
1328.78091	0.11924
1326.85234	0.11920
1324.92378	0.11901
1322.99521	0.11891
1321.06665	0.11902
1319.13809	0.11931
1317.20952	0.11976
1315.28096	0.12026
1313.35239	0.12055
1311.42383	0.12050
1309.49526	0.12026
1307.56670	0.11995
1305.63813	0.11964
1303.70957	0.11933
1301.78101	0.11902
1299.85244	0.11880
1297.92388	0.11873
1295.99531	0.11878
1294.06675	0.11880
1292.13818	0.11878
1290.20962	0.11879
1288.28105	0.11886
1286.35249	0.11893
1284.42393	0.11902
1282.49536	0.11918
1280.56680	0.11936
1278.63823	0.11948
1276.70967	0.11952
1274.78110	0.11954
1272.85254	0.11957
1270.92397	0.11968
1268.99541	0.11995
1267.06685	0.12043
1265.13828	0.12103
1263.20972	0.12161
1261.28115	0.12199
1259.35259	0.12193
1257.42402	0.12148
1255.49546	0.12088
1253.56689	0.12028
1251.63833	0.11976
1249.70977	0.11942
1247.78120	0.11919
1245.85264	0.11894
1243.92407	0.11868
1241.99551	0.11840
1240.06694	0.11806
1238.13838	0.11778
1236.20981	0.11760
1234.28125	0.11742
1232.35269	0.11721
1230.42412	0.11701
1228.49556	0.11685
1226.56699	0.11667
1224.63843	0.11642
1222.70986	0.11618
1220.78130	0.11596
1218.85273	0.11571
1216.92417	0.11550
1214.99561	0.11541
1213.06704	0.11542
1211.13848	0.11552
1209.20991	0.11575
1207.28135	0.11610
1205.35278	0.11655
1203.42422	0.11707
1201.49565	0.11765
1199.56709	0.11821
1197.63853	0.11869
1195.70996	0.11903
1193.78140	0.11928
1191.85283	0.11953
1189.92427	0.12000
1187.99570	0.12086
1186.06714	0.12224
1184.13857	0.12391
1182.21001	0.12525
1180.28145	0.12551
1178.35288	0.12442
1176.42432	0.12264
1174.49575	0.12104
1172.56719	0.11990
1170.63862	0.11910
1168.71006	0.11855
1166.78149	0.11828
1164.85293	0.11832
1162.92437	0.11877
1160.99580	0.11978
1159.06724	0.12143
1157.13867	0.12338
1155.21011	0.12473
1153.28154	0.12455
1151.35298	0.12284
1149.42441	0.12051
1147.49585	0.11848
1145.56729	0.11709
1143.63872	0.11623
1141.71016	0.11565
1139.78159	0.11526
1137.85303	0.11515
1135.92446	0.11536
1133.99590	0.11576
1132.06733	0.11619
1130.13877	0.11664
1128.21021	0.11723
1126.28164	0.11807
1124.35308	0.11914
1122.42451	0.12044
1120.49595	0.12196
1118.56738	0.12356
1116.63882	0.12518
1114.71025	0.12672
1112.78169	0.12802
1110.85312	0.12911
1108.92456	0.13027
1106.99600	0.13162
1105.06743	0.13296
1103.13887	0.13407
1101.21030	0.13495
1099.28174	0.13566
1097.35317	0.13616
1095.42461	0.13655
1093.49604	0.13708
1091.56748	0.13778
1089.63892	0.13850
1087.71035	0.13929
1085.78179	0.14039
1083.85322	0.14171
1081.92466	0.14293
1079.99609	0.14416
1078.06753	0.14573
1076.13896	0.14761
1074.21040	0.14969
1072.28184	0.15188
1070.35327	0.15379
1068.42471	0.15504
1066.49614	0.15538
1064.56758	0.15487
1062.63901	0.15402
1060.71045	0.15340
1058.78188	0.15309
1056.85332	0.15290
1054.92476	0.15284
1052.99619	0.15299
1051.06763	0.15329
1049.13906	0.15377
1047.21050	0.15440
1045.28193	0.15517
1043.35337	0.15614
1041.42480	0.15745
1039.49624	0.15941
1037.56768	0.16251
1035.63911	0.16720
1033.71055	0.17343
1031.78198	0.18004
1029.85342	0.18488
1027.92485	0.18607
1025.99629	0.18325
1024.06772	0.17805
1022.13916	0.17278
1020.21060	0.16857
1018.28203	0.16539
1016.35347	0.16304
1014.42490	0.16137
1012.49634	0.15998
1010.56777	0.15861
1008.63921	0.15737
1006.71064	0.15632
1004.78208	0.15504
1002.85352	0.15288
1000.92495	0.14956
998.99639	0.14565
997.06782	0.14202
995.13926	0.13900
993.21069	0.13657
991.28213	0.13471
989.35356	0.13346
987.42500	0.13275
985.49644	0.13233
983.56787	0.13201
981.63931	0.13160
979.71074	0.13086
977.78218	0.12977
975.85361	0.12847
973.92505	0.12720
971.99648	0.12637
970.06792	0.12622
968.13936	0.12658
966.21079	0.12701
964.28223	0.12703
962.35366	0.12629
960.42510	0.12479
958.49653	0.12296
956.56797	0.12132
954.63940	0.12009
952.71084	0.11940
950.78228	0.11917
948.85371	0.11895
946.92515	0.11874
944.99658	0.11873
943.06802	0.11868
941.13945	0.11846
939.21089	0.11814
937.28232	0.11756
935.35376	0.11668
933.42520	0.11578
931.49663	0.11509
929.56807	0.11457
927.63950	0.11420
925.71094	0.11413
923.78237	0.11451
921.85381	0.11523
919.92524	0.11630
917.99668	0.11794
916.06812	0.12019
914.13955	0.12290
912.21099	0.12589
910.28242	0.12876
908.35386	0.13089
906.42529	0.13167
904.49673	0.13086
902.56816	0.12861
900.63960	0.12538
898.71104	0.12191
896.78247	0.11889
894.85391	0.11654
892.92534	0.11493
890.99678	0.11401
889.06821	0.11342
887.13965	0.11289
885.21108	0.11238
883.28252	0.11192
881.35396	0.11149
879.42539	0.11109
877.49683	0.11077
875.56826	0.11051
873.63970	0.11016
871.71113	0.10973
869.78257	0.10927
867.85400	0.10873
865.92544	0.10813
863.99687	0.10763
862.06831	0.10714
860.13975	0.10643
858.21118	0.10573
856.28262	0.10540
854.35405	0.10552
852.42549	0.10601
850.49692	0.10688
848.56836	0.10813
846.63979	0.10960
844.71123	0.11088
842.78267	0.11167
840.85410	0.11178
838.92554	0.11111
836.99697	0.10969
835.06841	0.10784
833.13984	0.10600
831.21128	0.10450
829.28271	0.10350
827.35415	0.10281
825.42559	0.10216
823.49702	0.10144
821.56846	0.10061
819.63989	0.09957
817.71133	0.09805
815.78276	0.09592
813.85420	0.09327
811.92563	0.09008
809.99707	0.08641
808.06851	0.08241
806.13994	0.07813
804.21138	0.07372
802.28281	0.06946
800.35425	0.06524
798.42568	0.06096
796.49712	0.05690
794.56855	0.05360
792.63999	0.05133
790.71143	0.04999
788.78286	0.04961
786.85430	0.05035
784.92573	0.05218
782.99717	0.05511
781.06860	0.05927
779.14004	0.06501
777.21147	0.07253
775.28291	0.08153
773.35435	0.09151
771.42578	0.10227
769.49722	0.11381
767.56865	0.12584
765.64009	0.13819
763.71152	0.15104
761.78296	0.16432
759.85439	0.17732
757.92583	0.18907
755.99727	0.19836
754.06870	0.20432
752.14014	0.20736
750.21157	0.20870
748.28301	0.20840
746.35444	0.20499
744.42588	0.19750
742.49731	0.18689
740.56875	0.17516
738.64019	0.16379
736.71162	0.15373
734.78306	0.14599
732.85449	0.14038
730.92593	0.13473
728.99736	0.12803
727.06880	0.12198
725.14023	0.11829
723.21167	0.11813
721.28311	0.12090
719.35454	0.12411
717.42598	0.12451
715.49741	0.12213
713.56885	0.12095
711.64028	0.12574
709.71172	0.13976
707.78315	0.16434
705.85459	0.19947
703.92603	0.24446
701.99746	0.29836
700.06890	0.35919
698.14033	0.41979
696.21177	0.46109
694.28320	0.45902
692.35464	0.41281
690.42607	0.34999
688.49751	0.29650
686.56895	0.26048
684.64038	0.23802
682.71182	0.22309
680.78325	0.21203
678.85469	0.20357
676.92612	0.19746
674.99756	0.19313
673.06899	0.18967
671.14043	0.18488
669.21187	0.17863
667.28330	0.17831
665.35474	0.17636
663.42617	0.17500
661.49761	0.17338
659.56904	0.17117
657.64048	0.16869
655.71191	0.16671
653.78335	0.16561
651.85479	0.16431
649.92622	0.16206
647.99766	0.15982
646.06909	0.15826
644.14053	0.15672
642.21196	0.15498
640.28340	0.15317
638.35483	0.15046
636.42627	0.14555
634.49771	0.13833
632.56914	0.13116
630.64058	0.12819
628.71201	0.13113
626.78345	0.13774
624.85488	0.14484
622.92632	0.15153
620.99775	0.15684
619.06919	0.15977
617.14062	0.16097
615.21206	0.16124
613.28350	0.16062
611.35493	0.15943
609.42637	0.15864
607.49780	0.15922
605.56924	0.16029
603.64067	0.16030
601.71211	0.15944
599.78354	0.15886
